2024-08-20 12:18:31 UTC-7
-30acaaaa:19170784458:-7e8e

pH Measure.1
Time [s],Measured value,dU/dt [mV/min],Temperature [°C]
0.0,4.484086036682129,0.0,20.91718101501465
2.0,4.737417221069336,717.2525634765625,20.927696228027344
4.0,5.1097564697265625,490.8893737792969,20.960834503173828
6.0,5.376468658447266,394.9076843261719,21.004173278808594
8.0,5.596965789794922,359.35791015625,21.048473358154297
10.0,5.795583724975586,318.5915832519531,21.087997436523438
12.0,5.971974849700928,286.3836975097656,21.126251220703125
14.0,6.133422374725342,259.7544250488281,21.157176971435547
16.0,6.279257774353027,234.88327026367188,21.18491554260254
18.0,6.411996841430664,218.98460388183594,21.210424423217773
20.0,6.530751705169678,204.3343505859375,21.231151580810547
22.0,6.644090175628662,184.67051696777344,21.24901008605957
24.0,6.747318267822266,167.09303283691406,21.269100189208984
26.0,6.840236186981201,153.98963928222656,21.280582427978516
28.0,6.92534875869751,140.04490661621094,21.294614791870117
30.0,7.001715660095215,127.37342071533203,21.307373046875
32.0,7.071842670440674,117.0285873413086,21.317899703979492
34.0,7.135814189910889,101.1552505493164,21.32651138305664
36.0,7.19301700592041,95.04753875732422,21.33416748046875
38.0,7.246456623077393,86.59058380126953,21.34182357788086
40.0,7.295447826385498,79.84095001220703,21.34979820251465
42.0,7.340271472930908,72.30986022949219,21.354581832885742
44.0,7.379970550537109,66.87388610839844,21.36223793029785
46.0,7.417048931121826,56.99711227416992,21.364789962768555
48.0,7.449184894561768,52.3909797668457,21.371171951293945
50.0,7.478135108947754,47.867862701416016,21.36989402770996
52.0,7.5051093101501465,41.56102752685547,21.37627601623535
54.0,7.528845310211182,38.832706451416016,21.381698608398438
56.0,7.550670623779297,34.87826156616211,21.381698608398438
58.0,7.570219993591309,31.872943878173828,21.385208129882812
60.0,7.588181972503662,29.160419464111328,21.39031219482422
62.0,7.604531764984131,26.522239685058594,21.389354705810547
64.0,7.619012355804443,25.069761276245117,21.392864227294922
66.0,7.632325649261475,20.817201614379883,21.392864227294922
68.0,7.644089221954346,18.744535446166992,21.395736694335938
70.0,7.654743671417236,17.124277114868164,21.396692276000977
72.0,7.66449499130249,15.243896484375,21.399246215820312
74.0,7.673206329345703,14.631701469421387,21.400840759277344
76.0,7.681277751922607,12.99471664428711,21.400840759277344
78.0,7.688720703125,11.770978927612305,21.403074264526367
80.0,7.695504188537598,11.973381996154785,21.403392791748047
82.0,7.701642036437988,9.665214538574219,21.40435028076172
84.0,7.7070631980896,8.586405754089355,21.40594482421875
86.0,7.7120561599731445,8.043500900268555,21.4072208404541
88.0,7.716565132141113,7.420253753662109,21.40594482421875
90.0,7.72071647644043,6.3288445472717285,21.408496856689453
92.0,7.724374771118164,6.592624664306641,21.41232681274414
94.0,7.728049278259277,4.449677467346191,21.409772872924805
96.0,7.731025218963623,5.6648478507995605,21.408496856689453
98.0,7.733978271484375,4.767796516418457,21.41232681274414
100.0,7.7364983558654785,4.396775245666504,21.409772872924805
102.0,7.738951206207275,4.8879170417785645,21.413284301757812
104.0,7.741191387176514,3.9504711627960205,21.41232681274414
106.0,7.74332332611084,3.3350086212158203,21.413602828979492
108.0,7.745090961456299,3.4626522064208984,21.417430877685547
110.0,7.746882915496826,2.81168532371521,21.415836334228516
112.0,7.748497009277344,2.67655611038208,21.415836334228516
114.0,7.749927520751953,2.2752764225006104,21.415836334228516
116.0,7.7513227462768555,2.185209035873413,21.417430877685547
118.0,7.7525529861450195,1.8645881414413452,21.415836334228516
120.0,7.753662586212158,2.485482692718506,21.417430877685547
122.0,7.754415035247803,1.8019481897354126,21.4187068939209
124.0,7.7554545402526855,1.3330658674240112,21.41966438293457
126.0,7.756298542022705,1.6997965574264526,21.417430877685547
128.0,7.757140159606934,1.3187142610549927,21.41966438293457
130.0,7.757899761199951,1.588183045387268,21.41838836669922
132.0,7.758577346801758,0.9600823521614075,21.413284301757812
134.0,7.758938312530518,1.1419405937194824,21.41966438293457
136.0,7.75945520401001,1.1368025541305542,21.417430877685547
138.0,7.759945392608643,0.9452881813049316,21.4212589263916
140.0,7.760259628295898,0.9678888916969299,21.422216415405273
142.0,7.760821342468262,0.8922865390777588,21.422216415405273


SET U 1.1
Time [s],Measured value [mV],Volume [mL],dV/dt [µL/min],Temperature [°C]
0.0,-46.059242248535156,0.0,0.0,21.4212589263916
2.001300096511841,-46.03258514404297,0.047999996691942215,1731.380615234375,21.42477035522461
4.00160026550293,-44.36210632324219,0.15799999237060547,3217.719482421875,21.423812866210938
6.001700401306152,-41.06379699707031,0.3240000009536743,4844.6513671875,21.422536849975586
8.001700401306152,-37.571197509765625,0.5400000214576721,6335.3154296875,21.42508888244629
10.001100540161133,-33.49334716796875,0.7989999651908875,7648.76806640625,21.42477035522461
12.001399993896484,-25.72150993347168,1.097000002861023,8815.9501953125,21.423812866210938
14.001199722290039,14.73610782623291,1.4259998798370361,9813.63671875,21.42604637145996
16.001399993896484,159.8121337890625,1.5779999494552612,8921.439453125,21.38393211364746
18.00149917602539,203.47384643554688,1.5779999494552612,7606.14013671875,21.428598403930664
20.00149917602539,207.657958984375,1.5779999494552612,6628.84228515625,21.422536849975586
22.00149917602539,208.1643829345703,1.5779999494552612,5874.091796875,21.430192947387695
24.001100540161133,208.34030151367188,1.5779999494552612,2834.534912109375,21.43242645263672
26.00119972229004,208.46054077148438,1.5779999494552612,85.58475494384766,21.431150436401367
28.00119972229004,208.5369415283203,1.5789998769760132,1.8709208965301514,21.434980392456055
30.001699447631836,208.60743713378906,1.587999939918518,279.9084167480469,21.434022903442383
32.0016975402832,208.98178100585938,1.5920000076293945,195.6267852783203,21.435298919677734
34.001399993896484,209.19085693359375,1.596000075340271,134.34213256835938,21.436574935913086
36.001399993896484,209.39462280273438,1.6009999513626099,123.49909973144531,21.436574935913086
38.001399993896484,209.8282012939453,1.6109999418258667,169.8626708984375,21.436574935913086
40.00130081176758,210.40806579589844,1.6260000467300415,320.0545959472656,21.435298919677734
42.0015983581543,211.40553283691406,1.649999976158142,736.388671875,21.437532424926758
44.0016975402832,212.67840576171875,1.6749999523162842,777.5379638671875,21.44008445739746
46.001399993896484,213.85296630859375,1.6979998350143433,709.3255615234375,21.43880844116211
48.00149917602539,214.86700439453125,1.720999836921692,674.3975219726562,21.43880844116211
50.00130081176758,215.8123321533203,1.7419999837875366,649.6287841796875,21.44008445739746
52.0010986328125,216.70140075683594,1.7629998922348022,628.646728515625,21.441680908203125
54.00149917602539,217.57505798339844,1.7829999923706055,597.4051513671875,21.441680908203125
56.0016975402832,218.25088500976562,1.8019999265670776,599.9998779296875,21.44391441345215
58.00149917602539,219.00193786621094,1.8209998607635498,574.0971069335938,21.442956924438477
60.00149917602539,219.7174530029297,1.8399999141693115,558.4346313476562,21.442956924438477
62.00149917602539,220.37136840820312,1.8579999208450317,543.6591186523438,21.442956924438477
64.0010986328125,221.0513458251953,1.875999927520752,532.5140380859375,21.444232940673828
66.00139617919922,221.5654754638672,1.8930000066757202,524.2677612304688,21.441680908203125
68.00169372558594,222.1814727783203,1.909999966621399,514.1038208007812,21.44646644592285
70.00149536132812,222.72817993164062,1.9270000457763672,509.4112243652344,21.444232940673828
72.00159454345703,223.2115020751953,1.9439998865127563,500.66339111328125,21.44391441345215
74.00149536132812,223.75228881835938,1.9600000381469727,496.978515625,21.4451904296875
76.00129699707031,224.23797607421875,1.9769998788833618,489.1153869628906,21.44678497314453
78.00139617919922,224.74974060058594,1.9930000305175781,487.936279296875,21.44646644592285
80.00159454345703,225.14955139160156,2.008999824523926,483.090087890625,21.44646644592285
82.00149536132812,225.6050262451172,2.0250000953674316,478.4740905761719,21.44646644592285
84.00149536132812,226.11383056640625,2.0409998893737793,474.91070556640625,21.447742462158203
86.00149536132812,226.552734375,2.057000160217285,473.7281188964844,21.449018478393555
88.0011978149414,226.97149658203125,2.072000026702881,473.60211181640625,21.44678497314453
90.00149536132812,227.36537170410156,2.0879998207092285,470.7994689941406,21.450294494628906
92.00149536132812,227.77525329589844,2.1039998531341553,470.2512512207031,21.450294494628906
94.00149536132812,228.1821746826172,2.118999719619751,469.34405517578125,21.449018478393555
96.00169372558594,228.59027099609375,2.134999990463257,469.0473327636719,21.449018478393555
98.0011978149414,228.9267120361328,2.140000104904175,429.2947998046875,21.450294494628906
100.00129699707031,228.981201171875,2.140000104904175,378.5557861328125,21.449018478393555
102.00149536132812,229.00489807128906,2.140000104904175,338.5427551269531,21.450294494628906
104.0010986328125,229.01673889160156,2.140000104904175,286.9637756347656,21.45061492919922
106.00139617919922,229.02088928222656,2.140000104904175,122.07569885253906,21.45061492919922
108.00169372558594,229.02857971191406,2.140000104904175,9.073482513427734,21.45189094543457
108.70169067382812,229.02621459960938,2.140000104904175,8.480987548828125,21.45061492919922
