2024-08-20 12:30:25 UTC-7
-30acaaaa:19170784458:-7e76

pH Measure.1
Time [s],Measured value,dU/dt [mV/min],Temperature [°C]
0.0,4.488338470458984,0.0,20.95669174194336
2.0,4.677146911621094,771.6074829101562,20.963382720947266
4.0,5.06626033782959,519.971435546875,20.992382049560547
6.0,5.3440680503845215,413.0238952636719,21.037317276000977
8.0,5.569474220275879,349.9321594238281,21.079391479492188
10.0,5.763798713684082,315.77618408203125,21.116050720214844
12.0,5.941440582275391,282.9932556152344,21.153032302856445
14.0,6.09865665435791,253.94778442382812,21.18491554260254
16.0,6.241620063781738,241.24134826660156,21.212974548339844
18.0,6.375882625579834,214.72071838378906,21.23848533630371
20.0,6.496476650238037,197.73646545410156,21.257619857788086
22.0,6.606423854827881,177.1320343017578,21.275480270385742
24.0,6.707467079162598,162.2234649658203,21.294614791870117
26.0,6.798273086547852,147.4981689453125,21.30641746520996
28.0,6.880396842956543,134.53038024902344,21.322683334350586
30.0,6.957003593444824,119.72476959228516,21.331615447998047
32.0,7.024336338043213,107.13998413085938,21.34309959411621
34.0,7.084071636199951,97.10842895507812,21.354581832885742
36.0,7.138675212860107,91.83422088623047,21.36223793029785
38.0,7.189148902893066,79.02254486083984,21.36861801147461
40.0,7.233959197998047,72.71755981445312,21.37531852722168
42.0,7.274190902709961,65.05948638916016,21.381380081176758
44.0,7.310305595397949,59.72769546508789,21.385208129882812
46.0,7.34265661239624,54.09715270996094,21.39158821105957
48.0,7.372323513031006,46.973758697509766,21.394460678100586
50.0,7.398940563201904,43.42399215698242,21.400840759277344
52.0,7.422784805297852,38.82746124267578,21.402116775512695
54.0,7.444065093994141,35.7471809387207,21.403392791748047
56.0,7.4632720947265625,30.883718490600586,21.409772872924805
58.0,7.480526447296143,29.12359046936035,21.410730361938477
60.0,7.496119976043701,24.880441665649414,21.414878845214844
62.0,7.509894847869873,21.489654541015625,21.4187068939209
64.0,7.522085666656494,20.08751678466797,21.417430877685547
66.0,7.533290863037109,17.44655990600586,21.4187068939209
68.0,7.543348789215088,16.592628479003906,21.4212589263916
70.0,7.552556991577148,14.683948516845703,21.42477035522461
72.0,7.560678005218506,11.477724075317383,21.42508888244629
74.0,7.5678887367248535,12.577253341674805,21.42604637145996
76.0,7.574661731719971,10.096549987792969,21.431150436401367
78.0,7.580627918243408,10.099796295166016,21.431150436401367
80.0,7.58607292175293,8.586088180541992,21.431150436401367
82.0,7.590943336486816,8.135677337646484,21.43242645263672
84.0,7.595516681671143,8.055335998535156,21.434022903442383
86.0,7.599582672119141,6.9002156257629395,21.434022903442383
88.0,7.603285789489746,5.7243757247924805,21.436574935913086
90.0,7.606573104858398,5.54439115524292,21.437532424926758
92.0,7.609668254852295,5.246636867523193,21.437532424926758
94.0,7.612517833709717,4.312047004699707,21.437850952148438
96.0,7.615113258361816,4.051271915435791,21.437532424926758
98.0,7.617340564727783,4.1536407470703125,21.437532424926758
100.0,7.619551658630371,3.597351551055908,21.44008445739746
102.0,7.621485233306885,2.5354912281036377,21.43880844116211
104.0,7.623242378234863,2.4531707763671875,21.43880844116211
106.0,7.624809741973877,2.647939920425415,21.441360473632812
108.0,7.626379489898682,1.8154760599136353,21.442956924438477
110.0,7.627577781677246,2.9921183586120605,21.441680908203125
112.0,7.628610134124756,2.2233023643493652,21.441360473632812
114.0,7.629744052886963,2.227473020553589,21.441360473632812
116.0,7.630884647369385,1.441379427909851,21.442956924438477
118.0,7.631863117218018,1.8409602642059326,21.44391441345215
120.0,7.6327948570251465,2.006087303161621,21.442956924438477
122.0,7.633528232574463,1.2339063882827759,21.44391441345215
124.0,7.634069442749023,1.6304763555526733,21.44391441345215
126.0,7.634899139404297,1.1009775400161743,21.442956924438477
128.0,7.635310173034668,1.1142997741699219,21.44646644592285
130.0,7.635892391204834,1.0938377380371094,21.44646644592285
132.0,7.636510372161865,1.0451936721801758,21.444232940673828
134.0,7.636814594268799,0.9199907183647156,21.4451904296875
136.0,7.637302398681641,0.9352694749832153,21.44646644592285


SET U 1.1
Time [s],Measured value [mV],Volume [mL],dV/dt [µL/min],Temperature [°C]
0.0,-38.90343475341797,0.0,0.0,21.449018478393555
2.0013999938964844,-38.890995025634766,0.04700000211596489,1731.380615234375,21.449018478393555
4.001500129699707,-37.042808532714844,0.15699999034404755,3224.765625,21.447742462158203
6.001500129699707,-33.5958251953125,0.3240000009536743,4849.48046875,21.450294494628906
8.00160026550293,-29.666662216186523,0.5400000214576721,6331.95849609375,21.449338912963867
10.00149917602539,-24.25955581665039,0.7989999651908875,7648.63427734375,21.450294494628906
12.001799583435059,-16.57778549194336,1.097000002861023,8820.0244140625,21.45189094543457
14.001298904418945,7.248717784881592,1.4259998798370361,9814.06640625,21.450294494628906
16.001298904418945,123.09070587158203,1.6629998683929443,8920.6025390625,21.452848434448242
18.001298904418945,196.38499450683594,1.6629998683929443,7524.1767578125,21.453166961669922
20.00149917602539,205.42373657226562,1.6629998683929443,6505.76611328125,21.454124450683594
22.001800537109375,206.64805603027344,1.6629998683929443,5730.1767578125,21.45699691772461
24.00149917602539,206.93710327148438,1.6629998683929443,3476.6669921875,21.459548950195312
26.001298904418945,207.10354614257812,1.6629998683929443,306.06134033203125,21.459548950195312
28.001399993896484,207.20306396484375,1.6629998683929443,0.0,21.456676483154297
30.001399993896484,207.28775024414062,1.6670000553131104,70.16452026367188,21.459230422973633
32.0015983581543,207.38963317871094,1.6709998846054077,150.98532104492188,21.460506439208984
34.00149917602539,207.55784606933594,1.6739999055862427,123.41231536865234,21.463058471679688
36.001800537109375,207.75686645507812,1.6779998540878296,110.8382797241211,21.461782455444336
38.00170135498047,208.01571655273438,1.6850000619888306,138.47860717773438,21.463058471679688
40.00129699707031,208.5339813232422,1.6959998607635498,231.22317504882812,21.465612411499023
42.00149917602539,209.3401336669922,1.712999939918518,611.7247314453125,21.462100982666016
44.00149917602539,210.63314819335938,1.7400000095367432,810.6492919921875,21.465612411499023
46.00149917602539,212.13111877441406,1.7649999856948853,791.83544921875,21.466888427734375
48.001800537109375,213.54258728027344,1.7889999151229858,728.0432739257812,21.46465492248535
50.00170135498047,214.62831115722656,1.811999797821045,689.1600952148438,21.469440460205078
52.00129699707031,215.5878448486328,1.8339999914169312,659.912353515625,21.469440460205078
54.0015983581543,216.54029846191406,1.8549998998641968,634.4253540039062,21.469440460205078
56.00149917602539,217.50221252441406,1.875,609.0631103515625,21.468164443969727
58.00149917602539,218.2455596923828,1.893999695777893,583.236083984375,21.46976089477539
60.001800537109375,219.0990753173828,1.9129998683929443,569.4760131835938,21.46976089477539
62.0015983581543,219.7405548095703,1.931999921798706,557.4225463867188,21.46976089477539
64.00129699707031,220.4750213623047,1.9499999284744263,543.142333984375,21.471036911010742
66.00150299072266,221.162109375,1.966999888420105,536.0480346679688,21.46976089477539
68.00159454345703,221.75204467773438,1.9850000143051147,520.4939575195312,21.472312927246094
70.0011978149414,222.396484375,2.001999855041504,512.515380859375,21.473270416259766
72.00180053710938,222.97279357910156,2.0189998149871826,506.770263671875,21.471994400024414
74.00180053710938,223.56689453125,2.0349998474121094,498.0054931640625,21.471036911010742
76.00139617919922,224.08338928222656,2.052000045776367,494.7547912597656,21.473270416259766
78.00159454345703,224.59988403320312,2.067999839782715,486.9947204589844,21.474864959716797
80.00159454345703,225.1311798095703,2.0840001106262207,484.79681396484375,21.473270416259766
82.0011978149414,225.61392211914062,2.0999999046325684,482.20330810546875,21.474546432495117
84.00170135498047,226.10731506347656,2.115999698638916,472.6736755371094,21.477418899536133
86.00180053710938,226.5687255859375,2.131999969482422,474.91851806640625,21.474546432495117
88.00139617919922,227.00465393066406,2.1469998359680176,468.51824951171875,21.47709846496582
90.00159454345703,227.46665954589844,2.1629998683929443,471.04669189453125,21.47582244873047
92.00150299072266,227.9097137451172,2.178999900817871,468.5633239746094,21.477418899536133
94.00139617919922,228.31307983398438,2.194000005722046,467.8159484863281,21.478376388549805
96.00150299072266,228.74368286132812,2.2090001106262207,466.4527893066406,21.478376388549805
98.00150299072266,228.9906768798828,2.2090001106262207,406.61663818359375,21.474864959716797
100.00150299072266,229.04457092285156,2.2090001106262207,360.81072998046875,21.478694915771484
102.00159454345703,229.0546417236328,2.2090001106262207,324.2801818847656,21.478376388549805
104.00139617919922,229.07122802734375,2.2090001106262207,233.16995239257812,21.47709846496582
106.00129699707031,229.08485412597656,2.2090001106262207,62.59181213378906,21.481246948242188
108.00170135498047,229.0801239013672,2.2090001106262207,8.486393928527832,21.480928421020508
