2024-08-20 12:42:02 UTC-7
-30acaaaa:19170784458:-7e5e

pH Measure.1
Time [s],Measured value,dU/dt [mV/min],Temperature [°C]
0.0,4.485142707824707,0.0,20.941715240478516
2.0,4.7274627685546875,745.0247192382812,20.946813583374023
4.0,5.090378761291504,539.09765625,20.97867774963379
6.0,5.373241901397705,429.8568420410156,21.0166015625
8.0,5.609655380249023,375.6963195800781,21.056442260742188
10.0,5.82139778137207,345.52349853515625,21.090547561645508
12.0,6.013099193572998,308.24383544921875,21.121469497680664
14.0,6.186927795410156,284.2713317871094,21.14824867248535
16.0,6.34184455871582,249.85292053222656,21.153032302856445
18.0,6.483271598815918,227.5474090576172,21.190336227416992
20.0,6.609246253967285,201.09832763671875,21.2094669342041
22.0,6.722443103790283,191.65318298339844,21.224773406982422
24.0,6.828124046325684,165.86375427246094,21.237529754638672
26.0,6.921457767486572,153.3797607421875,21.24901008605957
28.0,7.006913661956787,138.97039794921875,21.26176643371582
30.0,7.082592010498047,120.87490844726562,21.270694732666016
32.0,7.149446487426758,107.9610366821289,21.277074813842773
34.0,7.209102630615234,94.15836334228516,21.2834529876709
36.0,7.261345386505127,85.68761444091797,21.290788650512695
38.0,7.309089660644531,76.47261047363281,21.29716682434082
40.0,7.352799892425537,68.68609619140625,21.299718856811523
42.0,7.391905784606934,62.46133041381836,21.30514144897461
44.0,7.426915168762207,56.78379821777344,21.30864906311035
46.0,7.457779884338379,49.04016876220703,21.31502914428711
48.0,7.485005855560303,44.247886657714844,21.31502914428711
50.0,7.509130001068115,39.7039794921875,21.317899703979492
52.0,7.530996322631836,35.406959533691406,21.320133209228516
54.0,7.550761699676514,32.05447769165039,21.32523536682129
56.0,7.568144798278809,29.42063331604004,21.3255558013916
58.0,7.583942413330078,25.6341495513916,21.32651138305664
60.0,7.597743511199951,22.501544952392578,21.329063415527344
62.0,7.609914779663086,19.348499298095703,21.329063415527344
64.0,7.621003150939941,17.631267547607422,21.329063415527344
66.0,7.630934715270996,15.576240539550781,21.33448600769043
68.0,7.639718055725098,13.611504554748535,21.336719512939453
70.0,7.6474928855896,13.147597312927246,21.333209991455078
72.0,7.6546783447265625,11.179464340209961,21.337038040161133
74.0,7.661104202270508,9.414725303649902,21.337995529174805
76.0,7.666662693023682,9.703631401062012,21.338314056396484
78.0,7.671677112579346,8.510169982910156,21.339590072631836
80.0,7.6760077476501465,7.680729866027832,21.340547561645508
82.0,7.680237770080566,6.4204792976379395,21.340866088867188
84.0,7.683972358703613,5.787656784057617,21.34309959411621
86.0,7.687229156494141,5.691858291625977,21.344375610351562
88.0,7.690247058868408,5.3793206214904785,21.34309959411621
90.0,7.693012237548828,3.626695394515991,21.344694137573242
92.0,7.695465087890625,4.198291778564453,21.344694137573242
94.0,7.697724342346191,2.620817184448242,21.344375610351562
96.0,7.699757099151611,3.490540027618408,21.344694137573242
98.0,7.701671600341797,2.7591006755828857,21.347246170043945
100.0,7.7029500007629395,3.0707030296325684,21.346927642822266
102.0,7.704495429992676,1.9369122982025146,21.345970153808594
104.0,7.7058796882629395,1.8673691749572754,21.348203659057617
106.0,7.707091808319092,1.9249637126922607,21.34979820251465
108.0,7.708240032196045,1.8619595766067505,21.348203659057617
110.0,7.70930290222168,1.7036466598510742,21.348203659057617
112.0,7.710317611694336,1.333667516708374,21.346927642822266
114.0,7.711129188537598,1.7567538022994995,21.349477767944336
116.0,7.711986541748047,1.1279057264328003,21.34979820251465
118.0,7.71264123916626,1.1611558198928833,21.349477767944336
120.0,7.713118553161621,1.009186029434204,21.350753784179688
122.0,7.713506698608398,1.0658299922943115,21.350753784179688
124.0,7.71412992477417,1.0014307498931885,21.350753784179688
126.0,7.71464729309082,1.041959524154663,21.35235023498535
128.0,7.714902877807617,0.8144763112068176,21.35235023498535
130.0,7.715342044830322,0.8424041271209717,21.35235023498535


SET U 1.1
Time [s],Measured value [mV],Volume [mL],dV/dt [µL/min],Temperature [°C]
0.0,-43.39595031738281,0.0,0.0,21.35330581665039
2.001500129699707,-43.402469635009766,0.047999996691942215,1731.380615234375,21.35330581665039
4.001500129699707,-41.65201950073242,0.15699999034404755,3217.719482421875,21.355857849121094
6.001799583435059,-37.98407745361328,0.3240000009536743,4846.33154296875,21.35330581665039
8.001799583435059,-33.856468200683594,0.5400000214576721,6331.56884765625,21.354581832885742
10.001399993896484,-28.65786361694336,0.7989999651908875,7647.53173828125,21.35235023498535
12.00149917602539,-20.50870704650879,1.097000002861023,8817.775390625,21.354581832885742
14.001299858093262,6.7280354499816895,1.4259998798370361,9813.39453125,21.355857849121094
16.00119972229004,125.9119873046875,1.6489999294281006,8884.7802734375,21.357454299926758
18.00149917602539,195.93246459960938,1.6489999294281006,7178.9306640625,21.35968589782715
20.00160026550293,205.50192260742188,1.6489999294281006,6213.08935546875,21.36223793029785
22.001699447631836,206.5177459716797,1.6489999294281006,5476.3154296875,21.361282348632812
24.001399993896484,206.79791259765625,1.6489999294281006,3371.440673828125,21.361282348632812
26.001298904418945,206.94244384765625,1.6489999294281006,266.7139587402344,21.362558364868164
28.00160026550293,207.05853271484375,1.6489999294281006,0.0,21.365110397338867
30.00160026550293,207.13197326660156,1.6539998054504395,108.72628784179688,21.365110397338867
32.001800537109375,207.28123474121094,1.659000039100647,197.9324493408203,21.363513946533203
34.00160217285156,207.53948974609375,1.6619998216629028,142.84207153320312,21.365110397338867
36.00160217285156,207.8048553466797,1.6679999828338623,141.1281280517578,21.366065979003906
38.00160217285156,208.19281005859375,1.6769999265670776,187.89596557617188,21.366065979003906
40.00130081176758,208.89944458007812,1.691999912261963,341.3473205566406,21.36766242980957
42.00170135498047,209.9774627685547,1.7160000801086426,737.8692016601562,21.36989402770996
44.00170135498047,211.40078735351562,1.7419999837875366,827.5783081054688,21.36861801147461
46.00160217285156,212.67604064941406,1.7629998922348022,653.363037109375,21.368938446044922
48.00160217285156,213.7706298828125,1.7869998216629028,661.8758544921875,21.371171951293945
50.00160217285156,214.91912841796875,1.809000015258789,688.0271606445312,21.36861801147461
52.00130081176758,215.9165802001953,1.8309999704360962,639.5186157226562,21.36861801147461
54.00160217285156,216.8411865234375,1.8509999513626099,620.5586547851562,21.36989402770996
56.001800537109375,217.69589233398438,1.870999813079834,592.7969970703125,21.371490478515625
58.001502990722656,218.53045654296875,1.8899999856948853,594.4322509765625,21.371171951293945
60.00170135498047,219.2886199951172,1.909000039100647,560.734130859375,21.371490478515625
62.00160217285156,219.96563720703125,1.92799973487854,556.7052612304688,21.37531852722168
64.00129699707031,220.65509033203125,1.9449999332427979,544.926025390625,21.374042510986328
66.00160217285156,221.34986877441406,1.9629998207092285,528.1697998046875,21.374042510986328
68.00170135498047,221.98245239257812,1.9799998998641968,519.1341552734375,21.372447967529297
70.00150299072266,222.5510711669922,1.9969998598098755,510.8092346191406,21.37531852722168
72.00170135498047,223.13864135742188,2.0139999389648438,504.3707580566406,21.37531852722168
74.00150299072266,223.63558959960938,2.0309998989105225,496.50030517578125,21.375
76.00140380859375,224.18289184570312,2.046999931335449,489.6991271972656,21.37627601623535
78.00160217285156,224.7023468017578,2.062999963760376,486.160400390625,21.37531852722168
80.00170135498047,225.21173095703125,2.0789997577667236,483.0719299316406,21.374042510986328
82.00160217285156,225.7134246826172,2.0949997901916504,478.566162109375,21.377870559692383
84.00180053710938,226.20208740234375,2.110999822616577,474.8832702636719,21.377552032470703
86.00140380859375,226.64987182617188,2.127000093460083,473.1950378417969,21.377870559692383
88.00140380859375,227.13970947265625,2.1419999599456787,472.9477844238281,21.379146575927734
90.00150299072266,227.57801818847656,2.1579999923706055,470.1003723144531,21.377870559692383
92.00160217285156,227.99322509765625,2.1740000247955322,468.9699401855469,21.377552032470703
94.00160217285156,228.400146484375,2.188999891281128,468.6834716796875,21.377552032470703
96.00180053710938,228.85740661621094,2.200000047683716,451.9467468261719,21.377552032470703
98.00129699707031,228.96401977539062,2.200000047683716,396.0603942871094,21.378828048706055
100.00120544433594,228.9995574951172,2.200000047683716,352.4745178222656,21.379146575927734
102.00150299072266,229.02621459960938,2.200000047683716,317.5306701660156,21.377870559692383
104.00129699707031,229.02325439453125,2.200000047683716,185.49432373046875,21.377552032470703
106.00160217285156,229.0398406982422,2.200000047683716,23.43095588684082,21.378828048706055
107.40179443359375,229.04991149902344,2.200000047683716,8.480987548828125,21.377870559692383
