2024-08-20 12:47:44 UTC-7
-30acaaaa:19170784458:-7e52

pH Measure.1
Time [s],Measured value,dU/dt [mV/min],Temperature [°C]
0.0,4.508595943450928,0.0,20.945539474487305
2.0,4.772103309631348,714.222412109375,20.947769165039062
4.0,5.132540702819824,501.4206848144531,20.971986770629883
6.0,5.403173446655273,419.3417053222656,21.00672149658203
8.0,5.633408546447754,360.6083679199219,21.0411434173584
10.0,5.835724353790283,331.49322509765625,21.071422576904297
12.0,6.019001483917236,300.4674377441406,21.09979248046875
14.0,6.186248779296875,277.4795227050781,21.123701095581055
16.0,6.339371681213379,241.93482971191406,21.14442253112793
18.0,6.474165439605713,227.17652893066406,21.161958694458008
20.0,6.599795341491699,201.9278564453125,21.181407928466797
22.0,6.713686466217041,185.77542114257812,21.194162368774414
24.0,6.815972805023193,165.01658630371094,21.204364776611328
26.0,6.906803131103516,147.72808837890625,21.218076705932617
28.0,6.98926305770874,116.02449035644531,21.227323532104492
30.0,7.060974597930908,122.35131072998047,21.23497772216797
32.0,7.129156589508057,110.55827331542969,21.241355895996094
34.0,7.190057754516602,98.25483703613281,21.24741554260254
36.0,7.243985652923584,87.86007690429688,21.252517700195312
38.0,7.292277812957764,76.91905975341797,21.259214401245117
40.0,7.335243225097656,69.0128173828125,21.265274047851562
42.0,7.373744010925293,63.61335754394531,21.268144607543945
44.0,7.4088006019592285,57.62917709350586,21.270694732666016
46.0,7.440643310546875,49.492488861083984,21.275480270385742
48.0,7.46866512298584,44.252403259277344,21.278348922729492
50.0,7.493598937988281,39.5418815612793,21.281858444213867
52.0,7.516148567199707,35.59218978881836,21.280900955200195
54.0,7.536336421966553,33.8153190612793,21.28568458557129
56.0,7.554715633392334,29.287370681762695,21.289831161499023
58.0,7.571046829223633,25.445934295654297,21.290788650512695
60.0,7.585334777832031,23.608821868896484,21.291107177734375
62.0,7.598596572875977,21.944900512695312,21.2933406829834
64.0,7.610559940338135,18.789522171020508,21.291107177734375
66.0,7.621165752410889,18.056123733520508,21.29716682434082
68.0,7.630630016326904,15.4656400680542,21.29716682434082
70.0,7.639194965362549,13.834758758544922,21.29716682434082
72.0,7.646808624267578,12.9701509475708,21.2974853515625
74.0,7.6537322998046875,10.999629974365234,21.300037384033203
76.0,7.659866809844971,9.640538215637207,21.303546905517578
78.0,7.665347099304199,8.912700653076172,21.302589416503906
80.0,7.670273303985596,7.980687141418457,21.302589416503906
82.0,7.674631118774414,6.174992561340332,21.30514144897461
84.0,7.678788661956787,7.150276184082031,21.30609703063965
86.0,7.682534694671631,6.51090145111084,21.303865432739258
88.0,7.6860246658325195,5.041862487792969,21.30609703063965
90.0,7.688999176025391,4.994635581970215,21.30609703063965
92.0,7.69172477722168,4.061426639556885,21.307373046875
94.0,7.694231986999512,3.994319438934326,21.30609703063965
96.0,7.69651460647583,3.1208815574645996,21.30864906311035
98.0,7.698508262634277,3.0154330730438232,21.312477111816406
100.0,7.70034646987915,3.2068238258361816,21.308969497680664
102.0,7.702136039733887,2.778028726577759,21.30864906311035
104.0,7.7036824226379395,2.4802374839782715,21.311519622802734
106.0,7.704929351806641,2.5026562213897705,21.311519622802734
108.0,7.706169128417969,2.319068431854248,21.310243606567383
110.0,7.707518577575684,2.0073704719543457,21.309925079345703
112.0,7.708301544189453,1.5565050840377808,21.311519622802734
114.0,7.709311008453369,1.5917737483978271,21.312477111816406
116.0,7.710076808929443,1.2175017595291138,21.312795639038086
118.0,7.710745811462402,1.5915511846542358,21.31502914428711
120.0,7.711589336395264,1.1596589088439941,21.312795639038086
122.0,7.712255001068115,1.4991405010223389,21.31630516052246
124.0,7.713048458099365,0.8103067874908447,21.313753128051758
126.0,7.71342658996582,1.0364439487457275,21.313753128051758
128.0,7.713739395141602,1.062591314315796,21.31534767150879
130.0,7.714115142822266,0.9183701276779175,21.31630516052246
132.0,7.714670181274414,0.7547551989555359,21.31502914428711


SET U 1.1
Time [s],Measured value [mV],Volume [mL],dV/dt [µL/min],Temperature [°C]
0.0,-43.362186431884766,0.0,0.0,21.31534767150879
2.001300096511841,-43.283992767333984,0.04700000211596489,1739.6614990234375,21.317899703979492
4.001299858093262,-40.604713439941406,0.15699999034404755,3224.8095703125,21.31534767150879
6.001500129699707,-35.182777404785156,0.3240000009536743,4847.9697265625,21.318857192993164
8.001699447631836,-27.59160614013672,0.5400000214576721,6331.56884765625,21.318857192993164
10.00149917602539,-16.276865005493164,0.7989999651908875,7653.099609375,21.317899703979492
12.001799583435059,5.114452838897705,1.097000002861023,8815.9501953125,21.318857192993164
14.001298904418945,48.98888397216797,1.4259998798370361,9813.63671875,21.319175720214844
16.00119972229004,115.39688873291016,1.5589998960494995,6280.8447265625,21.322683334350586
18.00149917602539,165.9249267578125,1.559999942779541,4336.85009765625,21.319175720214844
20.00149917602539,189.85055541992188,1.559999942779541,3765.90283203125,21.3230037689209
22.00160026550293,196.64088439941406,1.559999942779541,3327.797607421875,21.321727752685547
24.001800537109375,197.9629364013672,1.559999942779541,1981.708984375,21.32427978515625
26.001298904418945,198.24191284179688,1.559999942779541,0.0,21.3255558013916
28.001399993896484,198.39353942871094,1.559999942779541,0.0,21.3230037689209
30.00149917602539,198.49365234375,1.562000036239624,39.70588302612305,21.32651138305664
32.0015983581543,198.6002655029297,1.5649999380111694,74.17476654052734,21.327787399291992
34.0015983581543,198.75604248046875,1.5699999332427979,117.53736114501953,21.330339431762695
36.001800537109375,199.27017211914062,1.5779999494552612,220.41590881347656,21.328105926513672
38.00170135498047,200.16871643066406,1.5920000076293945,451.90753173828125,21.328105926513672
40.001399993896484,201.7555389404297,1.6139999628067017,705.4478149414062,21.330657958984375
42.00149917602539,203.8173828125,1.6449998617172241,974.4785766601562,21.331615447998047
44.00149917602539,205.4705352783203,1.6670000553131104,672.7879028320312,21.331615447998047
46.00149917602539,207.177001953125,1.6969999074935913,856.5104370117188,21.330657958984375
48.001800537109375,208.7898712158203,1.718000054359436,736.2029418945312,21.331615447998047
50.0015983581543,209.98397827148438,1.7419999837875366,632.2542724609375,21.33416748046875
52.00129699707031,211.51451110839844,1.7680000066757202,819.4295043945312,21.3354434967041
54.0015983581543,212.73941040039062,1.7899998426437378,660.2442626953125,21.33416748046875
56.00149917602539,213.84349060058594,1.8129998445510864,690.7809448242188,21.336719512939453
58.00149917602539,214.95230102539062,1.8359997272491455,680.2110595703125,21.33448600769043
60.001800537109375,215.85025024414062,1.8569999933242798,643.691650390625,21.33416748046875
62.001800537109375,216.80328369140625,1.8779999017715454,626.292236328125,21.336719512939453
64.00129699707031,217.70773315429688,1.897999882698059,594.8721313476562,21.336719512939453
66.00159454345703,218.4380645751953,1.9169999361038208,581.7716064453125,21.3354434967041
68.00159454345703,219.16067504882812,1.935999870300293,563.9327392578125,21.336719512939453
70.0011978149414,219.89218139648438,1.9549998044967651,558.1587524414062,21.336719512939453
72.00180053710938,220.5419464111328,1.972999930381775,544.7262573242188,21.340547561645508
74.00180053710938,221.2077178955078,1.9900000095367432,531.1856079101562,21.331615447998047
76.00139617919922,221.88946533203125,2.006999969482422,523.4667358398438,21.3354434967041
78.00159454345703,222.3946990966797,2.0239999294281006,514.7069702148438,21.339590072631836
80.00150299072266,222.95799255371094,2.0409998893737793,503.8542785644531,21.338314056396484
82.00129699707031,223.56747436523438,2.057999849319458,499.1173400878906,21.339590072631836
84.00170135498047,224.06028747558594,2.0739998817443848,493.20849609375,21.338314056396484
86.00180053710938,224.60284423828125,2.0899999141693115,488.7947998046875,21.339590072631836
88.00139617919922,225.11399841308594,2.1069998741149902,485.15594482421875,21.338314056396484
90.00159454345703,225.6239776611328,2.122999906539917,481.2386169433594,21.340866088867188
92.00150299072266,226.12803649902344,2.138000011444092,475.35894775390625,21.339590072631836
94.00139617919922,226.53614807128906,2.1539998054504395,472.42529296875,21.340547561645508
96.00170135498047,226.92469787597656,2.169999837875366,471.7315979003906,21.34341812133789
98.00170135498047,227.34405517578125,2.185999870300293,470.7964172363281,21.337995529174805
100.00139617919922,227.84336853027344,2.2009999752044678,468.9375,21.338314056396484
102.00150299072266,228.2461395263672,2.2169997692108154,469.2847595214844,21.340866088867188
104.00150299072266,228.7247314453125,2.2320001125335693,467.9098815917969,21.340866088867188
106.00159454345703,228.8408203125,2.2320001125335693,409.2725524902344,21.34341812133789
108.00150299072266,228.8834686279297,2.2320001125335693,362.90045166015625,21.340866088867188
110.00150299072266,228.90716552734375,2.2320001125335693,325.96710205078125,21.34341812133789
112.00170135498047,228.917236328125,2.2320001125335693,234.7576904296875,21.340866088867188
114.00129699707031,228.9427032470703,2.2320001125335693,62.8829231262207,21.340866088867188
116.00129699707031,228.94091796875,2.2320001125335693,8.525797843933105,21.345970153808594
