2024-08-20 12:53:36 UTC-7
-30acaaaa:19170784458:-7e46

pH Measure.1
Time [s],Measured value,dU/dt [mV/min],Temperature [°C]
0.0,4.494557857513428,0.0,21.10616683959961
2.0,4.75157356262207,684.374267578125,21.10744285583496
4.0,5.100810527801514,469.51849365234375,21.121469497680664
6.0,5.353192329406738,375.6543273925781,21.1453800201416
8.0,5.555409908294678,306.963134765625,21.16865348815918
10.0,5.728112697601318,277.61016845703125,21.18746566772461
12.0,5.880614280700684,245.32630920410156,21.2094669342041
14.0,6.018290042877197,224.9528045654297,21.224773406982422
16.0,6.144901752471924,210.1060028076172,21.240079879760742
18.0,6.262335300445557,186.15667724609375,21.252517700195312
20.0,6.3679585456848145,174.72012329101562,21.26272201538086
22.0,6.4651408195495605,158.16696166992188,21.271970748901367
24.0,6.553216457366943,149.28514099121094,21.278348922729492
26.0,6.637357234954834,133.6040496826172,21.288236618041992
28.0,6.7125773429870605,123.67354583740234,21.29493522644043
30.0,6.782593727111816,116.8646240234375,21.303865432739258
32.0,6.847503662109375,107.0831527709961,21.30641746520996
34.0,6.905667781829834,88.13029479980469,21.311519622802734
36.0,6.958873271942139,89.0111312866211,21.31502914428711
38.0,7.009849548339844,85.0068588256836,21.319175720214844
40.0,7.056573390960693,76.41427612304688,21.321727752685547
42.0,7.098910808563232,69.01937103271484,21.327787399291992
44.0,7.137876033782959,61.179988861083984,21.330657958984375
46.0,7.172683238983154,57.89036178588867,21.330339431762695
48.0,7.204832553863525,52.26339340209961,21.331615447998047
50.0,7.234305381774902,47.612422943115234,21.331615447998047
52.0,7.260890960693359,45.2613639831543,21.336719512939453
54.0,7.285759925842285,39.51761245727539,21.340866088867188
56.0,7.308355808258057,36.36240005493164,21.339590072631836
58.0,7.328953266143799,34.79730224609375,21.34309959411621
60.0,7.347929954528809,31.316560745239258,21.34309959411621
62.0,7.365751266479492,29.109643936157227,21.34341812133789
64.0,7.381595611572266,26.31684684753418,21.347246170043945
66.0,7.396087646484375,24.400367736816406,21.345970153808594
68.0,7.409599304199219,22.335521697998047,21.344694137573242
70.0,7.4219255447387695,20.56747817993164,21.34979820251465
72.0,7.4329657554626465,17.737184524536133,21.347246170043945
74.0,7.443231582641602,18.0349178314209,21.34979820251465
76.0,7.452733516693115,15.819767951965332,21.350753784179688
78.0,7.461552619934082,13.654736518859863,21.350753784179688
80.0,7.469551086425781,12.853521347045898,21.35235023498535
82.0,7.476967811584473,12.557055473327637,21.353626251220703
84.0,7.483497142791748,11.638762474060059,21.353626251220703
86.0,7.489591598510742,9.19886302947998,21.357133865356445
88.0,7.495096206665039,9.613116264343262,21.35330581665039
90.0,7.500366687774658,8.668054580688477,21.354581832885742
92.0,7.505289077758789,7.533075332641602,21.356178283691406
94.0,7.509652614593506,7.804808139801025,21.356178283691406
96.0,7.513637542724609,6.3737006187438965,21.356178283691406
98.0,7.517230033874512,5.969900131225586,21.35873031616211
100.0,7.52063512802124,5.947817802429199,21.357454299926758
102.0,7.523820877075195,5.444168567657471,21.35873031616211
104.0,7.526763916015625,5.070347785949707,21.35873031616211
106.0,7.529516220092773,4.105461597442627,21.36223793029785
108.0,7.531911849975586,3.911550998687744,21.35968589782715
110.0,7.5340447425842285,4.7807512283325195,21.361282348632812
112.0,7.536243915557861,3.5206682682037354,21.36000633239746
114.0,7.538206100463867,2.5967931747436523,21.36000633239746
116.0,7.540063381195068,2.5505552291870117,21.361282348632812
118.0,7.541823387145996,2.5003976821899414,21.312795639038086
120.0,7.543257236480713,2.5182433128356934,21.363513946533203
122.0,7.544699668884277,2.3025670051574707,21.362558364868164
124.0,7.546058654785156,2.359314203262329,21.362558364868164
126.0,7.547354698181152,2.4837470054626465,21.363513946533203
128.0,7.548483848571777,2.0060079097747803,21.366065979003906
130.0,7.549594402313232,1.5612714290618896,21.362558364868164
132.0,7.550626754760742,1.4365025758743286,21.362558364868164
134.0,7.551632881164551,1.919972538948059,21.36000633239746
136.0,7.552308082580566,1.5645318031311035,21.364789962768555
138.0,7.553155422210693,1.4210983514785767,21.365110397338867
140.0,7.5537872314453125,1.3439860343933105,21.366065979003906
142.0,7.554410457611084,1.1349793672561646,21.366065979003906
144.0,7.5551252365112305,1.373938798904419,21.36638641357422
146.0,7.555830001831055,0.7629067301750183,21.36638641357422
148.0,7.5561981201171875,0.9395405054092407,21.36638641357422
150.0,7.556565761566162,0.9693768620491028,21.36638641357422
152.0,7.556865215301514,1.0355709791183472,21.36989402770996
154.0,7.557465553283691,0.9004364013671875,21.371171951293945


SET U 1.1
Time [s],Measured value [mV],Volume [mL],dV/dt [µL/min],Temperature [°C]
0.0,-34.25453567504883,0.0,0.0,21.36989402770996
2.0013999938964844,-34.04306411743164,0.047999996691942215,1731.380615234375,21.36989402770996
4.000999927520752,-31.03147315979004,0.15699999034404755,3217.719482421875,21.36989402770996
6.001100063323975,-25.44902229309082,0.3240000009536743,4846.33154296875,21.371490478515625
8.001100540161133,-17.2821044921875,0.5400000214576721,6331.56884765625,21.368938446044922
10.000900268554688,-2.7449653148651123,0.7989999651908875,7654.203125,21.371171951293945
12.001298904418945,16.750118255615234,1.097000002861023,8818.197265625,21.374042510986328
14.0010986328125,55.54202651977539,1.4259998798370361,9819.544921875,21.37531852722168
16.000999450683594,119.623779296875,1.5260000228881836,5602.05126953125,21.375
18.000999450683594,164.35231018066406,1.527999997138977,3590.509033203125,21.37531852722168
20.000999450683594,187.7466278076172,1.527999997138977,3153.75927734375,21.37627601623535
22.00119972229004,194.51979064941406,1.527999997138977,2811.739013671875,21.378828048706055
24.0010986328125,196.02012634277344,1.527999997138977,2536.644287109375,21.379146575927734
26.00119972229004,196.35182189941406,1.527999997138977,131.9044952392578,21.379146575927734
28.00119972229004,196.49339294433594,1.527999997138977,0.0,21.377870559692383
30.00119972229004,196.60475158691406,1.5290000438690186,25.04071617126465,21.378828048706055
32.001102447509766,196.69241333007812,1.5309998989105225,43.35078430175781,21.381380081176758
34.00100326538086,196.77532958984375,1.5339999198913574,73.44569396972656,21.38265609741211
36.00120162963867,196.9553985595703,1.5399999618530273,136.0755157470703,21.38393211364746
38.001399993896484,197.5577850341797,1.5499999523162842,276.3321533203125,21.381698608398438
40.00120162963867,198.6873321533203,1.5649999380111694,609.0154418945312,21.385208129882812
42.00120162963867,200.33456420898438,1.590000033378601,761.4760131835938,21.385208129882812
44.001102447509766,202.77194213867188,1.6180000305175781,897.1632690429688,21.38425064086914
46.00100326538086,204.38600158691406,1.6419999599456787,666.6893920898438,21.385526657104492
48.001102447509766,206.37796020507812,1.6670000553131104,806.509521484375,21.386802673339844
50.00130081176758,207.67868041992188,1.690999984741211,634.6461791992188,21.385526657104492
52.00120162963867,209.29510498046875,1.7160000801086426,796.1492919921875,21.387760162353516
54.00120162963867,210.82505798339844,1.7409999370574951,729.3008422851562,21.389354705810547
56.001102447509766,211.84384155273438,1.7599999904632568,596.6016235351562,21.39031219482422
58.00100326538086,212.97634887695312,1.7839999198913574,714.3759765625,21.39158821105957
60.001102447509766,214.05435180664062,1.8070000410079956,701.3739624023438,21.3906307220459
62.00130081176758,215.27688598632812,1.8289999961853027,663.8001708984375,21.39158821105957
64.0011978149414,216.35548400878906,1.8499999046325684,626.2005615234375,21.3906307220459
66.00139617919922,217.13438415527344,1.870999813079834,620.344482421875,21.3906307220459
68.0010986328125,217.9571075439453,1.8909999132156372,592.8827514648438,21.39158821105957
70.00080108642578,218.7508087158203,1.909999966621399,570.5169677734375,21.3931827545166
72.0011978149414,219.48052978515625,1.92799973487854,566.5324096679688,21.394140243530273
74.0010986328125,220.3139190673828,1.9469999074935913,549.5733032226562,21.392864227294922
76.0011978149414,220.82862854003906,1.9640001058578491,536.5159912109375,21.39158821105957
78.00139617919922,221.5559844970703,1.9819999933242798,524.5445556640625,21.3931827545166
80.00129699707031,222.0890655517578,1.999000072479248,518.3180541992188,21.394460678100586
82.00080108642578,222.7305450439453,2.0160000324249268,506.53045654296875,21.394460678100586
84.0010986328125,223.25711059570312,2.0329999923706055,504.4158630371094,21.3931827545166
86.0010986328125,223.89620971679688,2.0490000247955322,494.52777099609375,21.395736694335938
88.0011978149414,224.38250732421875,2.06499981880188,488.28216552734375,21.385526657104492
90.00139617919922,225.02633666992188,2.0809998512268066,486.2601013183594,21.396692276000977
92.00129699707031,225.40542602539062,2.0969998836517334,480.42999267578125,21.394460678100586
94.0009994506836,225.84906005859375,2.11299991607666,481.47271728515625,21.395736694335938
96.0010986328125,226.367919921875,2.128999948501587,473.95751953125,21.397968292236328
98.0011978149414,226.91758728027344,2.1449997425079346,472.4429016113281,21.394460678100586
100.0010986328125,227.29904174804688,2.1610000133514404,470.8492736816406,21.396692276000977
102.00139617919922,227.73675537109375,2.1760001182556152,468.9375,21.399246215820312
104.00139617919922,228.19224548339844,2.191999912261963,468.38409423828125,21.397968292236328
106.0009994506836,228.65187072753906,2.2069997787475586,469.2325439453125,21.397968292236328
108.0011978149414,228.88406372070312,2.2100000381469727,418.7984313964844,21.39701271057129
110.00089263916016,228.94566345214844,2.2100000381469727,370.3702392578125,21.400840759277344
112.00109100341797,228.96401977539062,2.2100000381469727,331.981201171875,21.400522232055664
114.00139617919922,228.9877166748047,2.2100000381469727,264.63238525390625,21.39701271057129
116.0011978149414,229.01141357421875,2.2100000381469727,95.32804107666016,21.397968292236328
118.0009994506836,229.02088928222656,2.2100000381469727,8.815130233764648,21.400840759277344
118.40089416503906,229.02088928222656,2.2100000381469727,8.456408500671387,21.399246215820312
