2024-08-20 15:33:30 UTC-7
-30acaaaa:19170784458:-7cde

pH Measure.1
Time [s],Measured value,dU/dt [mV/min],Temperature [°C]
0.0,4.557665824890137,0.0,21.455718994140625
2.0,4.759191513061523,700.90771484375,21.449338912963867
4.0,5.12174129486084,490.3648376464844,21.46337890625
6.0,5.385357856750488,396.5859069824219,21.485076904296875
8.0,5.603139877319336,350.8638000488281,21.512842178344727
10.0,5.799698829650879,319.1432800292969,21.53709602355957
12.0,5.979558944702148,299.9962158203125,21.557523727416992
14.0,6.146717548370361,271.6824645996094,21.57571792602539
16.0,6.299182415008545,253.5098114013672,21.593273162841797
18.0,6.4405999183654785,237.6250762939453,21.608915328979492
20.0,6.57016658782959,212.88368225097656,21.62136459350586
22.0,6.689028263092041,195.79637145996094,21.628068923950195
24.0,6.79766845703125,173.37216186523438,21.639562606811523
26.0,6.896061420440674,163.6811981201172,21.649459838867188
28.0,6.987119197845459,127.9781723022461,21.65488624572754
30.0,7.065188407897949,128.61151123046875,21.662229537963867
32.0,7.138988494873047,122.98164367675781,21.66765785217285
34.0,7.206274509429932,109.6650161743164,21.671489715576172
36.0,7.26700496673584,98.98997497558594,21.67627716064453
38.0,7.321507453918457,88.39515686035156,21.680429458618164
40.0,7.370641708374023,82.76553344726562,21.6829833984375
42.0,7.415311336517334,71.03596496582031,21.688091278076172
44.0,7.45488977432251,64.85861206054688,21.69064712524414
46.0,7.490347385406494,58.43998718261719,21.691604614257812
48.0,7.522561073303223,51.41059875488281,21.696712493896484
50.0,7.551609039306641,45.02459716796875,21.697032928466797
52.0,7.576807498931885,40.82109451293945,21.69799041748047
54.0,7.59967041015625,36.07080841064453,21.69799041748047
56.0,7.6197381019592285,32.19227600097656,21.70214080810547
58.0,7.63832950592041,29.3399715423584,21.704376220703125
60.0,7.65443229675293,26.78945541381836,21.70565414428711
62.0,7.669112205505371,24.70213508605957,21.704376220703125
64.0,7.6823296546936035,21.568653106689453,21.704376220703125
66.0,7.694451332092285,18.245237350463867,21.70597267150879
68.0,7.704647541046143,18.142475128173828,21.70597267150879
70.0,7.714595794677734,16.786968231201172,21.707250595092773
72.0,7.723404884338379,13.349834442138672,21.70693016052246
74.0,7.731042861938477,13.258142471313477,21.70948600769043
76.0,7.738013744354248,11.055145263671875,21.70948600769043
78.0,7.744167327880859,9.94133472442627,21.70980453491211
80.0,7.749771595001221,9.335466384887695,21.70948600769043
82.0,7.754714012145996,7.928195953369141,21.708526611328125
84.0,7.759320259094238,7.054515838623047,21.707250595092773
86.0,7.763254165649414,5.933855056762695,21.70948600769043
88.0,7.766696929931641,5.754373550415039,21.712039947509766
90.0,7.770010948181152,3.6033434867858887,21.70948600769043
92.0,7.773035049438477,4.459028720855713,21.712039947509766
94.0,7.775869369506836,4.796245098114014,21.70948600769043
96.0,7.778212070465088,3.934100389480591,21.711082458496094
98.0,7.780462265014648,3.5581138134002686,21.70948600769043
100.0,7.7824320793151855,3.603549003601074,21.70948600769043
102.0,7.784169673919678,3.135161876678467,21.708526611328125
104.0,7.785684585571289,2.128798007965088,21.70693016052246
106.0,7.787132263183594,2.2476305961608887,21.711082458496094
108.0,7.788572788238525,2.0034689903259277,21.70693016052246
110.0,7.7897772789001465,2.138859272003174,21.70693016052246
112.0,7.790876865386963,1.335559606552124,21.697032928466797
114.0,7.7916483879089355,1.6176490783691406,21.70948600769043
116.0,7.79260778427124,1.4896903038024902,21.70948600769043
118.0,7.793458938598633,1.6804269552230835,21.704376220703125
120.0,7.794260501861572,1.4985287189483643,21.70597267150879
122.0,7.794797897338867,1.140747308731079,21.707250595092773
124.0,7.795267105102539,1.1284499168395996,21.711082458496094
126.0,7.795788764953613,0.8295767903327942,21.70693016052246
128.0,7.796313285827637,0.9152722954750061,21.70565414428711


SET U 1.1
Time [s],Measured value [mV],Volume [mL],dV/dt [µL/min],Temperature [°C]
0.0,-48.136680603027344,0.0,0.0,21.70565414428711
2.001500129699707,-48.108245849609375,0.047999996691942215,1731.380615234375,21.70597267150879
4.001299858093262,-46.34772491455078,0.15699999034404755,3217.719482421875,21.708526611328125
6.001299858093262,-42.535240173339844,0.3240000009536743,4846.33154296875,21.70693016052246
8.001199722290039,-37.573570251464844,0.5400000214576721,6331.56884765625,21.70693016052246
10.000999450683594,-30.576536178588867,0.7989999651908875,7647.53173828125,21.70693016052246
12.001198768615723,-19.85296058654785,1.097000002861023,8819.095703125,21.707250595092773
14.00149917602539,18.828100204467773,1.4259998798370361,9824.275390625,21.70597267150879
16.00149917602539,134.0316619873047,1.6150000095367432,8333.10546875,21.70597267150879
18.00119972229004,197.70704650878906,1.6150000095367432,7057.529296875,21.708526611328125
20.000999450683594,207.7284393310547,1.6150000095367432,6120.6259765625,21.707250595092773
22.001300811767578,209.1316375732422,1.6150000095367432,5403.322265625,21.708526611328125
24.000900268554688,209.3892822265625,1.6150000095367432,3003.93115234375,21.70948600769043
26.001100540161133,209.5338134765625,1.6150000095367432,106.40255737304688,21.707250595092773
28.001300811767578,209.62680053710938,1.6150000095367432,0.0,21.707250595092773
30.001399993896484,209.70025634765625,1.619999885559082,98.86237335205078,21.70693016052246
32.00130081176758,209.8062744140625,1.624000072479248,154.1177978515625,21.70948600769043
34.001102447509766,209.94192504882812,1.6260000467300415,109.9354019165039,21.708526611328125
36.00130081176758,210.09829711914062,1.6299998760223389,102.51828002929688,21.708526611328125
38.001399993896484,210.31329345703125,1.6359999179840088,123.43017578125,21.708526611328125
40.00120162963867,210.71665954589844,1.6459999084472656,203.25050354003906,21.708526611328125
42.00149917602539,211.37709045410156,1.6629998683929443,511.1193542480469,21.708526611328125
44.00130081176758,212.50071716308594,1.686999797821045,763.0077514648438,21.708526611328125
46.000999450683594,213.68475341796875,1.7109997272491455,730.1780395507812,21.70980453491211
48.00130081176758,214.8291015625,1.7329999208450317,678.2681884765625,21.70948600769043
50.001399993896484,215.71815490722656,1.7549998760223389,654.6786499023438,21.711082458496094
52.00120162963867,216.7102813720703,1.7760000228881836,633.3679809570312,21.711082458496094
54.001399993896484,217.49746704101562,1.7959998846054077,604.5159301757812,21.711082458496094
56.00120162963867,218.31427001953125,1.8149998188018799,585.4192504882812,21.711082458496094
58.001102447509766,218.99424743652344,1.8339999914169312,569.4760131835938,21.70948600769043
60.00120162963867,219.74530029296875,1.8529999256134033,559.0706787109375,21.711082458496094
62.00130081176758,220.42526245117188,1.870999813079834,543.171875,21.712358474731445
64.00129699707031,221.07444763183594,1.8889999389648438,535.4783325195312,21.70980453491211
66.00139617919922,221.70526123046875,1.9059998989105225,520.5594482421875,21.712039947509766
68.00129699707031,222.2738800048828,1.9229999780654907,513.6325073242188,21.712358474731445
70.0010986328125,222.837158203125,1.9399998188018799,506.9408874511719,21.712039947509766
72.00129699707031,223.33055114746094,1.9570000171661377,502.2619934082031,21.71331787109375
74.00129699707031,223.8446807861328,1.972999930381775,493.7400207519531,21.711082458496094
76.0011978149414,224.36769104003906,1.9889999628067017,488.28216552734375,21.711082458496094
78.00149536132812,224.8990020751953,2.004999876022339,486.2601013183594,21.70948600769043
80.00139617919922,225.3941650390625,2.0209999084472656,480.42999267578125,21.70980453491211
82.00090026855469,225.8656463623047,2.0369999408721924,481.47271728515625,21.712039947509766
84.00129699707031,226.33712768554688,2.05299973487854,473.95751953125,21.70980453491211
86.0011978149414,226.78195190429688,2.068999767303467,472.4429016113281,21.70980453491211
88.0011978149414,227.15451049804688,2.0850000381469727,473.3807678222656,21.70980453491211
90.00149536132812,227.5851287841797,2.0999999046325684,471.1137390136719,21.71331787109375
92.00149536132812,228.06134033203125,2.115999698638916,468.8993835449219,21.70980453491211
94.00090026855469,228.44041442871094,2.131999969482422,468.21258544921875,21.711082458496094
96.00099182128906,228.8289794921875,2.140000104904175,442.10260009765625,21.70980453491211
98.00099182128906,228.9427032470703,2.140000104904175,388.4799499511719,21.70980453491211
100.00129699707031,228.9788360595703,2.140000104904175,346.4579772949219,21.693201065063477
102.00129699707031,228.981201171875,2.140000104904175,312.6396789550781,21.70948600769043
104.00129699707031,229.00962829589844,2.140000104904175,165.6896514892578,21.712358474731445
106.00139617919922,229.00015258789062,2.140000104904175,13.452912330627441,21.712039947509766
107.2011947631836,229.01673889160156,2.140000104904175,8.389790534973145,21.708526611328125
