2024-08-20 15:38:46 UTC-7
-30acaaaa:19170784458:-7cd2

pH Measure.1
Time [s],Measured value,dU/dt [mV/min],Temperature [°C]
0.0,4.531165599822998,0.0,20.784664154052734
2.0,4.768599510192871,695.0744018554688,20.80632209777832
4.0,5.136369705200195,504.6507568359375,20.863977432250977
6.0,5.404205322265625,394.543701171875,20.939167022705078
8.0,5.623008728027344,353.3963317871094,21.01277732849121
10.0,5.8218231201171875,318.6390075683594,21.081623077392578
12.0,6.001744747161865,292.019775390625,21.1453800201416
14.0,6.165593147277832,271.9176940917969,21.199262619018555
16.0,6.319234848022461,258.768798828125,21.24996566772461
18.0,6.461400032043457,233.52151489257812,21.289831161499023
20.0,6.587307929992676,217.241943359375,21.329063415527344
22.0,6.706145286560059,202.4048614501953,21.36000633239746
24.0,6.816643238067627,173.3392791748047,21.394460678100586
26.0,6.914834022521973,159.75633239746094,21.4187068939209
28.0,7.002445697784424,145.43463134765625,21.444232940673828
30.0,7.082446098327637,126.5619888305664,21.462100982666016
32.0,7.155663967132568,116.56031799316406,21.481246948242188
34.0,7.2215189933776855,108.83483123779297,21.500076293945312
36.0,7.281647205352783,95.40296936035156,21.517948150634766
38.0,7.334853649139404,87.78518676757812,21.528478622436523
40.0,7.384093284606934,79.78124237060547,21.539649963378906
42.0,7.428549289703369,69.79438018798828,21.55113983154297
44.0,7.467001914978027,63.67506790161133,21.560077667236328
46.0,7.5009870529174805,54.31877136230469,21.57061004638672
48.0,7.531708240509033,50.28944396972656,21.578271865844727
50.0,7.5593976974487305,45.111637115478516,21.58465576171875
52.0,7.584339618682861,41.44107437133789,21.59071922302246
54.0,7.6068806648254395,36.53211975097656,21.597105026245117
56.0,7.626908302307129,32.373252868652344,21.60380744934082
58.0,7.6445136070251465,26.592817306518555,21.60253143310547
60.0,7.660116672515869,25.706579208374023,21.610191345214844
62.0,7.6746134757995605,22.979656219482422,21.614980697631836
64.0,7.687192916870117,20.36216163635254,21.618810653686523
66.0,7.698497772216797,18.840465545654297,21.621685028076172
68.0,7.708799362182617,15.687102317810059,21.62551498413086
70.0,7.71760368347168,13.860146522521973,21.628068923950195
72.0,7.725812911987305,12.770247459411621,21.631580352783203
74.0,7.733186721801758,11.277838706970215,21.63062286376953
76.0,7.739445686340332,10.240824699401855,21.63413429260254
78.0,7.7451653480529785,9.057013511657715,21.637008666992188
80.0,7.750303745269775,9.103812217712402,21.639562606811523
82.0,7.755102157592773,6.988454341888428,21.639562606811523
84.0,7.759257793426514,6.337785243988037,21.64307403564453
86.0,7.762931823730469,6.1592559814453125,21.64339256286621
88.0,7.766247272491455,5.986849784851074,21.644351959228516
90.0,7.769380569458008,5.074100017547607,21.644670486450195
92.0,7.772311210632324,3.90690279006958,21.648181915283203
94.0,7.774725914001465,4.342081546783447,21.649778366088867
96.0,7.776982307434082,4.164579391479492,21.649778366088867
98.0,7.779021263122559,3.070556163787842,21.65073585510254
100.0,7.780916213989258,3.0398306846618652,21.652013778686523
102.0,7.782577037811279,3.1047537326812744,21.653289794921875
104.0,7.784117221832275,2.068429470062256,21.653610229492188
106.0,7.785499095916748,1.5931544303894043,21.652332305908203
108.0,7.786704063415527,2.122637987136841,21.65584373474121
110.0,7.787748336791992,1.8160357475280762,21.65488624572754
112.0,7.7887654304504395,1.444100022315979,21.656164169311523
114.0,7.789769649505615,0.7722076773643494,21.658397674560547
116.0,7.7903923988342285,1.1567044258117676,21.658397674560547
118.0,7.791167259216309,1.3306773900985718,21.65871810913086
120.0,7.791685104370117,1.0907984972000122,21.65967559814453
122.0,7.792096138000488,1.1129580736160278,21.65871810913086
124.0,7.7926506996154785,0.9825037717819214,21.661272048950195
126.0,7.793229103088379,0.8397380709648132,21.65871810913086
128.0,7.793532371520996,0.8677478432655334,21.66350746154785
130.0,7.7938923835754395,0.7518925070762634,21.66254997253418


SET U 1.1
Time [s],Measured value [mV],Volume [mL],dV/dt [µL/min],Temperature [°C]
0.0,-47.997474670410156,0.0,0.0,21.661272048950195
2.0016000270843506,-47.968448638916016,0.047999996691942215,1731.380615234375,21.664783477783203
4.00160026550293,-46.26005554199219,0.15699999034404755,3217.719482421875,21.66254997253418
6.001299858093262,-42.32732009887695,0.3240000009536743,4823.849609375,21.65999412536621
8.001199722290039,-37.998294830322266,0.5400000214576721,6343.93505859375,21.66254997253418
10.001099586486816,-31.56993293762207,0.7989999651908875,7639.06201171875,21.66254997253418
12.001500129699707,-19.405134201049805,1.097000002861023,8819.4072265625,21.666061401367188
14.001500129699707,28.53856086730957,1.4250000715255737,9826.57421875,21.666379928588867
16.001399993896484,151.09368896484375,1.5489999055862427,7956.1083984375,21.66765785217285
18.001399993896484,198.66363525390625,1.5489999055862427,6789.0146484375,21.668933868408203
20.001001358032227,206.2814178466797,1.5489999055862427,5920.5234375,21.668933868408203
22.001001358032227,207.2836151123047,1.5489999055862427,5249.0361328125,21.669893264770508
24.001399993896484,207.55075073242188,1.5489999055862427,2447.546630859375,21.666061401367188
26.001399993896484,207.71185302734375,1.5489999055862427,0.0,21.668933868408203
28.001501083374023,207.82321166992188,1.5489999055862427,0.0,21.672447204589844
30.001501083374023,207.90908813476562,1.5549999475479126,160.202880859375,21.67116928100586
32.00139617919922,208.07672119140625,1.5589998960494995,172.38436889648438,21.669893264770508
34.000999450683594,208.3094940185547,1.5630000829696655,132.79901123046875,21.671489715576172
36.001197814941406,208.5410919189453,1.569000005722046,140.78578186035156,21.672447204589844
38.00149917602539,208.97763061523438,1.5789998769760132,197.01419067382812,21.674043655395508
40.00139617919922,209.69314575195312,1.5950000286102295,415.4627685546875,21.674043655395508
42.0015983581543,210.81143188476562,1.61899995803833,762.2945556640625,21.67500114440918
44.00129699707031,212.39114379882812,1.6439999341964722,787.9188232421875,21.672765731811523
46.0010986328125,213.3341064453125,1.6629998683929443,568.1822509765625,21.67500114440918
48.00129699707031,214.45948791503906,1.6859997510910034,666.05029296875,21.677873611450195
50.00139617919922,215.49070739746094,1.7070000171661377,658.4986572265625,21.67531967163086
52.00139617919922,216.4188690185547,1.7279999256134033,625.8964233398438,21.677555084228516
54.0015983581543,217.2765350341797,1.7489999532699585,624.2796630859375,21.67627716064453
56.00139617919922,218.11761474609375,1.7680000066757202,570.0756225585938,21.67531967163086
58.001197814941406,218.89532470703125,1.7869998216629028,577.2625122070312,21.67531967163086
60.00139617919922,219.67718505859375,1.8059998750686646,554.9998168945312,21.67915153503418
62.00129699707031,220.38320922851562,1.8239998817443848,545.9166259765625,21.677555084228516
64.00129699707031,221.0442352294922,1.8420000076293945,533.8549194335938,21.677555084228516
66.00160217285156,221.66970825195312,1.8589999675750732,523.8292846679688,21.677873611450195
68.00149536132812,222.30941772460938,1.875999927520752,516.0570678710938,21.67915153503418
70.0011978149414,222.88455200195312,1.8930000066757202,506.55853271484375,21.677873611450195
72.00139617919922,223.41111755371094,1.909999966621399,499.9391174316406,21.67915153503418
74.00129699707031,224.0052032470703,1.9259999990463257,490.5568542480469,21.680429458618164
76.0011978149414,224.49563598632812,1.9420000314712524,488.5777893066406,21.67915153503418
78.00160217285156,225.0601043701172,1.9580000638961792,485.4488525390625,21.680429458618164
80.00160217285156,225.53158569335938,1.9739998579025269,484.0044250488281,21.677555084228516
82.0011978149414,226.0877685546875,1.9900000095367432,473.2645568847656,21.680429458618164
84.00139617919922,226.50534057617188,2.005999803543091,474.71868896484375,21.67915153503418
86.00129699707031,226.90989685058594,2.0220000743865967,471.18914794921875,21.681705474853516
88.00129699707031,227.3884735107422,2.0369999408721924,472.440673828125,21.681386947631836
90.00149536132812,227.8978729248047,2.05299973487854,469.88995361328125,21.6829833984375
92.00160217285156,228.2745819091797,2.068999767303467,468.6789855957031,21.681705474853516
94.0011978149414,228.7063751220703,2.0840001106262207,465.8197937011719,21.6829833984375
96.0011978149414,228.98297119140625,2.0840001106262207,409.0120849609375,21.6829833984375
98.0011978149414,229.02621459960938,2.0840001106262207,362.69561767578125,21.6829833984375
100.00139617919922,229.04991149902344,2.0840001106262207,325.8018493652344,21.681705474853516
102.00139617919922,229.0801239013672,2.0840001106262207,240.9630889892578,21.681705474853516
104.0011978149414,229.0990753173828,2.0840001106262207,70.03130340576172,21.67915153503418
106.00139617919922,229.10855102539062,2.0840001106262207,8.54289436340332,21.681386947631836
106.1012954711914,229.11802673339844,2.0840001106262207,8.404687881469727,21.680429458618164
