2024-08-20 12:59:49 UTC-7
-30acaaaa:19170784458:-7e3a

pH Measure.1
Time [s],Measured value,dU/dt [mV/min],Temperature [°C]
0.0,4.450458526611328,0.0,21.215845108032227
2.0,4.685410499572754,736.6951293945312,21.210742950439453
4.0,5.054491996765137,503.55328369140625,21.218395233154297
6.0,5.318618297576904,381.77581787109375,21.243587493896484
8.0,5.525775909423828,319.7670593261719,21.26399803161621
10.0,5.704623222351074,288.698974609375,21.279306411743164
12.0,5.863308429718018,254.647705078125,21.29716682434082
14.0,6.004131317138672,231.38412475585938,21.308969497680664
16.0,6.133878707885742,205.25714111328125,21.321727752685547
18.0,6.245943069458008,183.8035430908203,21.333209991455078
20.0,6.35282039642334,181.13450622558594,21.340866088867188
22.0,6.453519344329834,162.63763427734375,21.348203659057617
24.0,6.5458455085754395,154.05694580078125,21.355857849121094
26.0,6.631667137145996,137.52890014648438,21.36223793029785
28.0,6.708439350128174,124.54151916503906,21.366065979003906
30.0,6.7793049812316895,118.90080261230469,21.371171951293945
32.0,6.845650672912598,105.97274017333984,21.372766494750977
34.0,6.905038356781006,97.57091522216797,21.380422592163086
36.0,6.9605712890625,94.15472412109375,21.38393211364746
38.0,7.012087821960449,82.42388153076172,21.385526657104492
40.0,7.059025764465332,77.3563461303711,21.389354705810547
42.0,7.10183572769165,70.00208282470703,21.3906307220459
44.0,7.140692234039307,62.95244216918945,21.39031219482422
46.0,7.176030158996582,56.816009521484375,21.395736694335938
48.0,7.2085418701171875,53.819583892822266,21.394460678100586
50.0,7.2381978034973145,48.66926574707031,21.399564743041992
52.0,7.265323162078857,43.33207321166992,21.400522232055664
54.0,7.289677619934082,42.39875411987305,21.403074264526367
56.0,7.312699317932129,38.43172836303711,21.400522232055664
58.0,7.333895683288574,33.951229095458984,21.403392791748047
60.0,7.352736473083496,30.30695152282715,21.403074264526367
62.0,7.370222568511963,27.706571578979492,21.406902313232422
64.0,7.386039733886719,25.7563419342041,21.40562629699707
66.0,7.400363922119141,24.565959930419922,21.40562629699707
68.0,7.413969993591309,21.70762825012207,21.4072208404541
70.0,7.426199913024902,19.340957641601562,21.4072208404541
72.0,7.4371113777160645,15.125231742858887,21.4072208404541
74.0,7.446625232696533,16.732162475585938,21.40594482421875
76.0,7.455957412719727,14.384235382080078,21.409454345703125
78.0,7.4644775390625,13.412405014038086,21.409772872924805
80.0,7.472129821777344,12.962292671203613,21.409772872924805
82.0,7.4795331954956055,11.028151512145996,21.412006378173828
84.0,7.485918045043945,11.55884838104248,21.41232681274414
86.0,7.492316722869873,9.435539245605469,21.410730361938477
88.0,7.497714042663574,9.585227966308594,21.403392791748047
90.0,7.502854824066162,8.384114265441895,21.413602828979492
92.0,7.507462978363037,7.628780364990234,21.413284301757812
94.0,7.511692047119141,6.761465549468994,21.413602828979492
96.0,7.51557731628418,7.179452419281006,21.412006378173828
98.0,7.519303798675537,5.945577144622803,21.413602828979492
100.0,7.522644519805908,6.2869553565979,21.413602828979492
102.0,7.525715351104736,5.06689453125,21.415836334228516
104.0,7.528611660003662,4.363959312438965,21.413284301757812
106.0,7.5312018394470215,4.632089138031006,21.415836334228516
108.0,7.5336222648620605,3.657458782196045,21.416154861450195
110.0,7.535839557647705,4.187334060668945,21.416154861450195
112.0,7.537864685058594,3.415182113647461,21.414878845214844
114.0,7.53982400894165,3.003038167953491,21.416154861450195
116.0,7.541550636291504,3.1806528568267822,21.416154861450195
118.0,7.543243885040283,2.847637176513672,21.417430877685547
120.0,7.544776439666748,2.396125078201294,21.417430877685547
122.0,7.546174049377441,2.1401472091674805,21.41838836669922
124.0,7.547512054443359,2.211846351623535,21.4187068939209
126.0,7.548635482788086,1.6337734460830688,21.4187068939209
128.0,7.549555778503418,1.9688477516174316,21.41838836669922
130.0,7.550599575042725,1.9802500009536743,21.417430877685547
132.0,7.551604270935059,1.3981821537017822,21.420940399169922
134.0,7.552538871765137,1.386378526687622,21.41838836669922
136.0,7.5531206130981445,1.3137834072113037,21.4187068939209
138.0,7.553920745849609,1.2168071269989014,21.422216415405273
140.0,7.554681777954102,1.3907315731048584,21.41966438293457
142.0,7.5554399490356445,1.2362756729125977,21.4187068939209
144.0,7.556135177612305,1.1176508665084839,21.41838836669922
146.0,7.5566816329956055,0.904231071472168,21.420940399169922
148.0,7.557077407836914,1.0006240606307983,21.422216415405273
150.0,7.557365417480469,0.8466228246688843,21.4212589263916
152.0,7.557784557342529,0.8887438178062439,21.4212589263916


SET U 1.1
Time [s],Measured value [mV],Volume [mL],dV/dt [µL/min],Temperature [°C]
0.0,-34.28533935546875,0.0,0.0,21.4212589263916
2.001499891281128,-34.20181655883789,0.047999996691942215,1731.380615234375,21.422216415405273
4.001399993896484,-31.5172119140625,0.15699999034404755,3217.719482421875,21.4212589263916
6.001399993896484,-25.51536750793457,0.3240000009536743,4846.33154296875,21.423812866210938
8.001399993896484,-17.824115753173828,0.5400000214576721,6331.56884765625,21.422216415405273
10.001199722290039,-4.17432975769043,0.7989999651908875,7648.63427734375,21.422536849975586
12.00160026550293,19.122501373291016,1.097000002861023,8818.7041015625,21.422216415405273
14.00160026550293,60.79969787597656,1.4259998798370361,9818.6318359375,21.423812866210938
16.001300811767578,116.2214126586914,1.5149998664855957,5306.1201171875,21.42604637145996
18.00119972229004,156.8386688232422,1.5179998874664307,2569.3896484375,21.42508888244629
20.00119972229004,180.6387939453125,1.5179998874664307,2257.96728515625,21.42604637145996
22.001399993896484,189.34056091308594,1.5179998874664307,2013.875732421875,21.428916931152344
24.00119972229004,191.56057739257812,1.5179998874664307,1817.4095458984375,21.427640914916992
26.001399993896484,192.06285095214844,1.5179998874664307,16.289587020874023,21.428916931152344
28.001598358154297,192.2672119140625,1.5179998874664307,0.0,21.427322387695312
30.001300811767578,192.3809356689453,1.5179998874664307,0.0,21.431150436401367
32.00149917602539,192.4757080078125,1.5199999809265137,32.534053802490234,21.428598403930664
34.00120162963867,192.5864715576172,1.5230000019073486,61.623329162597656,21.43242645263672
36.00149917602539,192.7576446533203,1.527999997138977,107.9517593383789,21.434022903442383
38.0015983581543,193.2078094482422,1.5359998941421509,218.19146728515625,21.43242645263672
40.00149917602539,194.2810821533203,1.5479998588562012,483.2070007324219,21.43370246887207
42.0015983581543,196.10069274902344,1.569000005722046,694.3814697265625,21.434022903442383
44.00149917602539,198.53628540039062,1.5989999771118164,915.2063598632812,21.434980392456055
46.00130081176758,200.87416076660156,1.627000093460083,850.321533203125,21.43370246887207
48.00149917602539,202.85546875,1.6519999504089355,752.5582275390625,21.434980392456055
50.00149917602539,204.719482421875,1.6769999265670776,743.85009765625,21.437532424926758
52.00149917602539,206.63621520996094,1.7079999446868896,915.0156860351562,21.435298919677734
54.0016975402832,208.08204650878906,1.7289998531341553,717.1232299804688,21.434980392456055
56.00130081176758,209.28977966308594,1.7529999017715454,618.3534545898438,21.437532424926758
58.00120162963867,210.77352905273438,1.7740000486373901,736.447509765625,21.435298919677734
60.00149917602539,211.89596557617188,1.7969999313354492,597.8509521484375,21.436574935913086
62.00149917602539,213.1830596923828,1.8209998607635498,760.0568237304688,21.434980392456055
64.00139617919922,214.1822967529297,1.8440001010894775,694.555908203125,21.437532424926758
66.00169372558594,215.27215576171875,1.8660000562667847,668.5669555664062,21.437850952148438
68.00159454345703,216.3602294921875,1.8869999647140503,635.3524169921875,21.437850952148438
70.00109100341797,217.10121154785156,1.9079999923706055,609.5038452148438,21.44008445739746
72.00139617919922,217.89254760742188,1.9270000457763672,591.563720703125,21.437532424926758
74.00149536132812,218.84320068359375,1.9459998607635498,590.53759765625,21.437532424926758
76.00139617919922,219.4331512451172,1.964999794960022,556.0850219726562,21.437532424926758
78.00169372558594,220.1652374267578,1.9829999208450317,550.6029052734375,21.43880844116211
80.00169372558594,220.7948760986328,2.001000165939331,536.5966186523438,21.437850952148438
82.00109100341797,221.44464111328125,2.0189998149871826,527.1085205078125,21.43880844116211
84.00139617919922,222.1974639892578,2.0360000133514404,516.1870727539062,21.437850952148438
86.00149536132812,222.7850341796875,2.05299973487854,506.92523193359375,21.44040298461914
88.00139617919922,223.1765594482422,2.068999767303467,503.2544250488281,21.44008445739746
90.00169372558594,223.69305419921875,2.0859997272491455,498.82086181640625,21.441360473632812
92.00169372558594,224.28298950195312,2.1019999980926514,489.2344665527344,21.44040298461914
94.00129699707031,224.8468780517578,2.118000030517578,486.2601013183594,21.441360473632812
96.00139617919922,225.2804412841797,2.134999990463257,482.9149169921875,21.44008445739746
98.00139617919922,225.82240295410156,2.1500000953674316,479.83978271484375,21.441680908203125
100.00129699707031,226.20208740234375,2.1659998893737793,475.08563232421875,21.44040298461914
102.00169372558594,226.72035217285156,2.181999921798706,473.0690002441406,21.44008445739746
104.00169372558594,227.21315002441406,2.197999954223633,470.7982482910156,21.441680908203125
106.0011978149414,227.642578125,2.2129998207092285,470.1427917480469,21.44391441345215
108.00149536132812,228.0779266357422,2.2290000915527344,468.7742614746094,21.442956924438477
110.00139617919922,228.52867126464844,2.244999885559082,469.39239501953125,21.44040298461914
112.0011978149414,228.85089111328125,2.253000020980835,441.0450134277344,21.442956924438477
114.00169372558594,228.94033813476562,2.253000020980835,387.66302490234375,21.441680908203125
116.00149536132812,228.96876525878906,2.253000020980835,345.80810546875,21.44040298461914
118.00139617919922,228.9877166748047,2.253000020980835,312.1103820800781,21.441680908203125
120.00149536132812,229.02088928222656,2.253000020980835,165.5300750732422,21.442956924438477
122.0011978149414,229.00430297851562,2.253000020980835,13.422818183898926,21.44040298461914
123.20109558105469,229.0398406982422,2.253000020980835,8.404687881469727,21.441680908203125
