2024-08-20 15:44:32 UTC-7
-30acaaaa:19170784458:-7cc6

pH Measure.1
Time [s],Measured value,dU/dt [mV/min],Temperature [°C]
0.0,4.569537162780762,0.0,21.03190040588379
2.0,4.813473701477051,671.1651000976562,21.047199249267578
4.0,5.182997703552246,543.193359375,21.08417320251465
6.0,5.478253364562988,466.14715576171875,21.138046264648438
8.0,5.741184234619141,427.5732421875,21.18874168395996
10.0,5.985273838043213,402.5237731933594,21.23497772216797
12.0,6.2098069190979,373.2207946777344,21.277074813842773
14.0,6.414680004119873,330.8991394042969,21.31630516052246
16.0,6.598605632781982,291.96746826171875,21.34979820251465
18.0,6.760745525360107,263.4320068359375,21.380422592163086
20.0,6.907179355621338,231.04586791992188,21.4072208404541
22.0,7.034974575042725,199.18832397460938,21.431150436401367
24.0,7.145260810852051,178.8993377685547,21.455718994140625
26.0,7.243983268737793,152.1727294921875,21.473270416259766
28.0,7.329348087310791,143.3492889404297,21.48763084411621
30.0,7.407237529754639,118.15884399414062,21.502948760986328
32.0,7.473336219787598,107.7093505859375,21.51667022705078
34.0,7.532736301422119,94.41465759277344,21.53199005126953
36.0,7.584435939788818,81.93086242675781,21.544755935668945
38.0,7.628940582275391,70.4237289428711,21.553693771362305
40.0,7.667886257171631,63.512962341308594,21.562950134277344
42.0,7.702817440032959,55.262847900390625,21.568056106567383
44.0,7.732845783233643,47.83208084106445,21.576993942260742
46.0,7.759057998657227,41.86830139160156,21.584335327148438
48.0,7.782215595245361,37.465553283691406,21.588165283203125
50.0,7.802016258239746,31.011152267456055,21.59455108642578
52.0,7.819451332092285,28.858631134033203,21.59965705871582
54.0,7.835013389587402,25.403352737426758,21.60253143310547
56.0,7.848854064941406,21.007211685180664,21.607318878173828
58.0,7.860676288604736,18.496845245361328,21.600934982299805
60.0,7.870975971221924,16.10010528564453,21.614980697631836
62.0,7.88035774230957,15.8289155960083,21.615299224853516
64.0,7.888513565063477,12.752141952514648,21.619131088256836
66.0,7.8956146240234375,11.873739242553711,21.623918533325195
68.0,7.901933193206787,9.636954307556152,21.624238967895508
70.0,7.9073662757873535,9.189753532409668,21.626792907714844
72.0,7.912293434143066,7.916062831878662,21.628068923950195
74.0,7.91663122177124,7.307376384735107,21.631580352783203
76.0,7.920347213745117,7.116918087005615,21.631580352783203
78.0,7.923820495605469,5.180089950561523,21.63413429260254
80.0,7.926862716674805,4.961949825286865,21.63413429260254
82.0,7.929487228393555,4.283169746398926,21.637008666992188
84.0,7.931845664978027,3.8971774578094482,21.637008666992188
86.0,7.933863639831543,3.618781089782715,21.63796615600586
88.0,7.935742378234863,2.863448143005371,21.63796615600586
90.0,7.9373602867126465,2.758148670196533,21.639562606811523
92.0,7.938856601715088,2.6807377338409424,21.640838623046875
94.0,7.9400858879089355,2.1327552795410156,21.639562606811523
96.0,7.941186904907227,1.0589685440063477,21.637008666992188
98.0,7.942051887512207,1.6863576173782349,21.640838623046875
100.0,7.942868709564209,1.4874228239059448,21.640838623046875
102.0,7.943570613861084,1.332628607749939,21.644670486450195
104.0,7.944360733032227,1.1345410346984863,21.64339256286621
106.0,7.945010185241699,1.3045251369476318,21.644670486450195
108.0,7.945690155029297,0.7174701690673828,21.645946502685547
110.0,7.9460530281066895,0.9815748929977417,21.64722442626953
112.0,7.946483135223389,0.7755888104438782,21.64690589904785


SET U 1.1
Time [s],Measured value [mV],Volume [mL],dV/dt [µL/min],Temperature [°C]
0.0,-56.8261604309082,0.0,0.0,21.649459838867188
2.0012998580932617,-56.81135177612305,0.047999996691942215,1731.380615234375,21.649459838867188
4.001399993896484,-55.21965026855469,0.15799999237060547,3217.719482421875,21.649459838867188
6.001699924468994,-51.36865234375,0.3240000009536743,4844.6513671875,21.652013778686523
8.001700401306152,-46.91936111450195,0.5400000214576721,6339.17041015625,21.652013778686523
10.001299858093262,-41.87652587890625,0.7989999651908875,7646.64892578125,21.652013778686523
12.001399993896484,-29.598539352416992,1.097000002861023,8818.6376953125,21.65073585510254
14.001199722290039,-0.14332252740859985,1.4259998798370361,9816.2119140625,21.65073585510254
16.00119972229004,118.99117279052734,1.6639999151229858,8940.2431640625,21.653289794921875
18.00139808654785,195.89219665527344,1.6639999151229858,7540.74169921875,21.65488624572754
20.00149917602539,208.47772216796875,1.6639999151229858,6520.08984375,21.656164169311523
22.001598358154297,209.94192504882812,1.6639999151229858,5742.7919921875,21.656164169311523
24.0010986328125,210.22149658203125,1.6639999151229858,3490.456787109375,21.657121658325195
26.001298904418945,210.38023376464844,1.6639999151229858,318.1927185058594,21.65871810913086
28.00139808654785,210.4815216064453,1.6639999151229858,0.0,21.657121658325195
30.001598358154297,210.54844665527344,1.6679999828338623,113.16283416748047,21.658397674560547
32.00170135498047,210.6378936767578,1.6739999055862427,201.96096801757812,21.65871810913086
34.001399993896484,210.8084716796875,1.6759999990463257,132.68389892578125,21.661272048950195
36.00130081176758,210.9796600341797,1.679999828338623,115.59398651123047,21.657121658325195
38.00130081176758,211.2159881591797,1.686999797821045,137.940185546875,21.65967559814453
40.00130081176758,211.6169891357422,1.6989998817443848,225.2029571533203,21.658397674560547
42.00149917602539,212.35086059570312,1.7170000076293945,639.3199462890625,21.65967559814453
44.00170135498047,213.3939208984375,1.7409999370574951,747.4461059570312,21.662229537963867
46.00149917602539,214.5406494140625,1.7639999389648438,692.3312377929688,21.66254997253418
48.00149917602539,215.5090789794922,1.7850000858306885,650.5172729492188,21.66350746154785
50.001399993896484,216.4550018310547,1.8059998750686646,622.652587890625,21.66254997253418
52.00120162963867,217.33636474609375,1.8269999027252197,624.7535400390625,21.66254997253418
54.00149917602539,218.11109924316406,1.845999836921692,569.6583251953125,21.665103912353516
56.0015983581543,218.8787384033203,1.8650000095367432,579.3048095703125,21.662229537963867
58.00149917602539,219.62979125976562,1.8839999437332153,553.0919799804688,21.664783477783203
60.00149917602539,220.23809814453125,1.902000069618225,548.864501953125,21.666061401367188
62.00149917602539,220.9281463623047,1.9199998378753662,535.4788208007812,21.665103912353516
64.0010986328125,221.4920196533203,1.936999797821045,525.9384765625,21.66254997253418
66.00149536132812,222.09617614746094,1.9539999961853027,517.8441162109375,21.664783477783203
68.00159454345703,222.63340759277344,1.970999836921692,511.9825134277344,21.66765785217285
70.00149536132812,223.19314575195312,1.9879997968673706,502.71087646484375,21.666379928588867
72.00169372558594,223.72325134277344,2.004999876022339,496.2095031738281,21.666379928588867
74.00149536132812,224.216064453125,2.0209999084472656,489.9063720703125,21.666379928588867
76.0011978149414,224.7449951171875,2.0369999408721924,484.87933349609375,21.66765785217285
78.00139617919922,225.1951446533203,2.05299973487854,483.9689025878906,21.668933868408203
80.00159454345703,225.658935546875,2.068999767303467,478.566162109375,21.66765785217285
82.00149536132812,226.1019744873047,2.0850000381469727,474.8832702636719,21.66765785217285
84.00169372558594,226.58056640625,2.1009998321533203,473.1950378417969,21.668615341186523
86.00159454345703,227.01947021484375,2.115999698638916,472.9477844238281,21.668933868408203
88.0011978149414,227.44534301757812,2.131999969482422,470.1003723144531,21.666379928588867
90.00139617919922,227.81494140625,2.1480000019073486,468.9677734375,21.668933868408203
92.00139617919922,228.2254180908203,2.1629998683929443,469.7366027832031,21.668933868408203
94.00149536132812,228.6702423095703,2.178999900817871,468.1211242675781,21.67116928100586
96.00169372558594,228.97409057617188,2.180999755859375,418.0873107910156,21.668615341186523
98.00129699707031,229.021484375,2.180999755859375,369.8139343261719,21.671489715576172
100.00129699707031,229.0333251953125,2.180999755859375,331.5342102050781,21.67116928100586
102.00149536132812,229.05938720703125,2.180999755859375,258.36529541015625,21.671489715576172
104.00109100341797,229.06175231933594,2.180999755859375,87.33405303955078,21.669893264770508
106.00129699707031,229.06886291503906,2.180999755859375,8.76723575592041,21.672447204589844
106.30159759521484,229.06826782226562,2.180999755859375,8.480987548828125,21.671489715576172
