2024-08-20 13:06:04 UTC-7
-30acaaaa:19170784458:-7e2e

pH Measure.1
Time [s],Measured value,dU/dt [mV/min],Temperature [°C]
0.0,4.449460029602051,0.0,21.108718872070312
2.0,4.708065986633301,800.9882202148438,21.10967445373535
4.0,5.103795528411865,524.1985473632812,21.132627487182617
6.0,5.384956359863281,421.8054504394531,21.16705894470215
8.0,5.617307662963867,371.9241027832031,21.201496124267578
10.0,5.8235859870910645,331.5419006347656,21.232425689697266
12.0,6.010621070861816,312.74566650390625,21.26176643371582
14.0,6.183456897735596,282.0440979003906,21.28472900390625
16.0,6.340933322906494,256.29547119140625,21.30609703063965
18.0,6.485137462615967,233.40692138671875,21.32427978515625
20.0,6.616232395172119,214.0790252685547,21.340866088867188
22.0,6.736837863922119,195.171142578125,21.355857849121094
24.0,6.844719409942627,171.51333618164062,21.368938446044922
26.0,6.9420976638793945,157.1645965576172,21.377870559692383
28.0,7.028690814971924,140.79331970214844,21.387760162353516
30.0,7.1071457862854,131.55953979492188,21.396692276000977
32.0,7.179130554199219,114.51387786865234,21.403074264526367
34.0,7.243399143218994,101.1917495727539,21.409454345703125
36.0,7.300021171569824,92.67486572265625,21.417430877685547
38.0,7.35093355178833,81.77238464355469,21.422216415405273
40.0,7.397258758544922,75.06568908691406,21.42604637145996
42.0,7.439075469970703,68.34207916259766,21.431150436401367
44.0,7.476597785949707,61.47837829589844,21.437532424926758
46.0,7.51085901260376,53.257991790771484,21.43880844116211
48.0,7.540887832641602,48.437591552734375,21.441680908203125
50.0,7.5674848556518555,43.87249755859375,21.44391441345215
52.0,7.592065334320068,37.81344223022461,21.447742462158203
54.0,7.613933086395264,34.27000045776367,21.449338912963867
56.0,7.633482456207275,31.461977005004883,21.45061492919922
58.0,7.650792121887207,29.814035415649414,21.452848434448242
60.0,7.666686534881592,25.1159610748291,21.453166961669922
62.0,7.680850028991699,23.024288177490234,21.459548950195312
64.0,7.693638801574707,17.06103515625,21.459548950195312
66.0,7.704401969909668,18.41960334777832,21.45699691772461
68.0,7.7145161628723145,15.658560752868652,21.460506439208984
70.0,7.723590850830078,15.027082443237305,21.463058471679688
72.0,7.732038497924805,12.910772323608398,21.463058471679688
74.0,7.739249229431152,12.287432670593262,21.46337890625
76.0,7.745920658111572,10.760489463806152,21.466888427734375
78.0,7.751902103424072,8.797246932983398,21.468482971191406
80.0,7.757058143615723,10.427492141723633,21.465612411499023
82.0,7.762086391448975,8.168997764587402,21.468482971191406
84.0,7.766513824462891,7.3044633865356445,21.466888427734375
86.0,7.77053689956665,6.334799289703369,21.471036911010742
88.0,7.774050712585449,6.022727012634277,21.471036911010742
90.0,7.777347087860107,5.657082557678223,21.468482971191406
92.0,7.7803263664245605,4.958907127380371,21.46976089477539
94.0,7.782907009124756,4.848735809326172,21.471036911010742
96.0,7.785315036773682,3.4889910221099854,21.471994400024414
98.0,7.787436008453369,3.4451425075531006,21.473270416259766
100.0,7.789376735687256,3.2795679569244385,21.473270416259766
102.0,7.791205883026123,3.362617015838623,21.469440460205078
104.0,7.792792320251465,2.6041476726531982,21.471994400024414
106.0,7.79428243637085,2.450576066970825,21.472312927246094
108.0,7.795566558837891,2.17557692527771,21.47709846496582
110.0,7.796778202056885,2.171246290206909,21.474864959716797
112.0,7.797945499420166,1.816129207611084,21.477418899536133
114.0,7.798716068267822,1.956895112991333,21.47582244873047
116.0,7.799706935882568,1.7830612659454346,21.47582244873047
118.0,7.800581932067871,1.2645375728607178,21.47709846496582
120.0,7.801312446594238,1.59600830078125,21.478694915771484
122.0,7.802113056182861,1.2821288108825684,21.477418899536133
124.0,7.802712917327881,1.274192214012146,21.478376388549805
126.0,7.803203105926514,0.9727262258529663,21.478376388549805
128.0,7.803540229797363,0.8973162174224854,21.478376388549805
130.0,7.804060459136963,0.9664745330810547,21.478694915771484


SET U 1.1
Time [s],Measured value [mV],Volume [mL],dV/dt [µL/min],Temperature [°C]
0.0,-48.54423141479492,0.0,0.0,21.478376388549805
2.0012998580932617,-48.49269485473633,0.04700000211596489,1739.6614990234375,21.479970932006836
4.001399993896484,-46.02606964111328,0.15699999034404755,3224.8095703125,21.481246948242188
6.001299858093262,-40.43648147583008,0.3240000009536743,4847.9697265625,21.474864959716797
8.00149917602539,-32.498172760009766,0.5400000214576721,6331.56884765625,21.480928421020508
10.001399993896484,-21.938079833984375,0.7989999651908875,7648.63427734375,21.481246948242188
12.001699447631836,8.90791130065918,1.097000002861023,8820.0244140625,21.483482360839844
14.001399993896484,87.02925109863281,1.3969999551773071,9735.427734375,21.479970932006836
16.001298904418945,160.9328155517578,1.400999903678894,7019.0791015625,21.483800888061523
18.001399993896484,192.8589324951172,1.400999903678894,6046.5068359375,21.4873104095459
20.001298904418945,199.89625549316406,1.400999903678894,5310.65576171875,21.484758377075195
22.00149917602539,201.0406036376953,1.400999903678894,4230.720703125,21.486352920532227
24.001699447631836,201.33616638183594,1.400999903678894,915.0048828125,21.485076904296875
26.00119972229004,201.4735870361328,1.400999903678894,0.0,21.4873104095459
28.001298904418945,201.57546997070312,1.402999997138977,26.760560989379883,21.48220443725586
30.00139808654785,201.69155883789062,1.4079999923706055,137.61036682128906,21.4873104095459
32.001502990722656,201.8597869873047,1.4109998941421509,126.26124572753906,21.486352920532227
34.001399993896484,202.15652465820312,1.4160000085830688,139.25852966308594,21.486352920532227
36.00170135498047,202.67539978027344,1.4250000715255737,201.47573852539062,21.48763084411621
38.001502990722656,203.4590301513672,1.438999891281128,372.4890441894531,21.489864349365234
40.00130081176758,204.78404235839844,1.4620000123977661,712.5765991210938,21.48763084411621
42.001502990722656,206.70550537109375,1.4909999370574951,938.2872924804688,21.488588333129883
44.001502990722656,208.0625,1.5119999647140503,621.2513427734375,21.489864349365234
46.001399993896484,209.73756408691406,1.5389999151229858,813.7166748046875,21.491140365600586
48.00160217285156,210.84400939941406,1.559999942779541,627.8665161132812,21.491140365600586
50.00160217285156,212.15184020996094,1.584999918937683,753.4082641601562,21.491458892822266
52.001197814941406,213.43360900878906,1.6089999675750732,730.3829345703125,21.49273681640625
54.001502990722656,214.59217834472656,1.6319998502731323,690.1884765625,21.491140365600586
56.001399993896484,215.6370086669922,1.6539998054504395,649.4952392578125,21.491140365600586
58.001399993896484,216.5284423828125,1.6739999055862427,619.7073364257812,21.4940128326416
60.00170135498047,217.35057067871094,1.6940001249313354,592.7969970703125,21.49273681640625
62.001399993896484,218.1294708251953,1.71399986743927,599.9998779296875,21.49273681640625
64.00130462646484,218.90716552734375,1.7329999208450317,572.1326293945312,21.493694305419922
66.00150299072266,219.69375610351562,1.7510000467300415,559.5693969726562,21.493694305419922
68.00150299072266,220.43060302734375,1.7699998617172241,543.6815185546875,21.493694305419922
70.00130462646484,221.04660034179688,1.7869998216629028,533.4685668945312,21.4940128326416
72.00170135498047,221.69044494628906,1.8049999475479126,525.5926513671875,21.491458892822266
74.00170135498047,222.21937561035156,1.8219999074935913,513.9684448242188,21.4940128326416
76.0010986328125,222.8306427001953,1.83899986743927,505.49566650390625,21.49273681640625
78.00150299072266,223.4199981689453,1.8549998998641968,499.85992431640625,21.493694305419922
80.00150299072266,223.89443969726562,1.8719998598098755,491.9825134277344,21.493694305419922
82.00130462646484,224.45120239257812,1.8879998922348022,490.568359375,21.4940128326416
84.00170135498047,224.94638061523438,1.9039998054504395,484.9588623046875,21.491458892822266
86.00170135498047,225.46702575683594,1.9199998378753662,480.6893005371094,21.494970321655273
88.00130462646484,225.95330810546875,1.935999870300293,474.5337219238281,21.493694305419922
90.00139617919922,226.40049743652344,1.9519999027252197,473.6082458496094,21.496246337890625
92.00150299072266,226.81808471679688,1.968000054359436,473.78216552734375,21.494970321655273
94.0011978149414,227.29429626464844,1.9829999208450317,473.1844787597656,21.494970321655273
96.00160217285156,227.73439025878906,1.999000072479248,468.75677490234375,21.4940128326416
98.00170135498047,228.14723205566406,2.0149998664855957,468.02142333984375,21.491140365600586
100.00139617919922,228.53282165527344,2.0299999713897705,465.5789794921875,21.4940128326416
102.00139617919922,228.89353942871094,2.0369999408721924,435.05609130859375,21.496564865112305
104.0011978149414,228.99246215820312,2.0369999408721924,383.02850341796875,21.496246337890625
106.0011978149414,229.02857971191406,2.0369999408721924,342.1155090332031,21.494970321655273
108.00159454345703,229.0546417236328,2.0369999408721924,304.3893127441406,21.49784278869629
110.00150299072266,229.06353759765625,2.0369999408721924,148.33987426757812,21.496246337890625
112.00150299072266,229.08721923828125,2.0369999408721924,9.22557258605957,21.49784278869629
113.00139617919922,229.08544921875,2.0369999408721924,8.404687881469727,21.496246337890625
