2024-08-20 15:49:59 UTC-7
-30acaaaa:19170784458:-7cba

pH Measure.1
Time [s],Measured value,dU/dt [mV/min],Temperature [°C]
0.0,4.577444076538086,0.0,20.926101684570312
2.0,4.806438446044922,674.7947998046875,20.941715240478516
4.0,5.171626091003418,536.840576171875,20.98728370666504
6.0,5.4637346267700195,445.85736083984375,21.048473358154297
8.0,5.716239929199219,416.3950500488281,21.10999298095703
10.0,5.95523738861084,398.3446350097656,21.16578483581543
12.0,6.176085472106934,363.87109375,21.215526580810547
14.0,6.378946781158447,325.3470764160156,21.26272201538086
16.0,6.560283184051514,294.80712890625,21.303546905517578
18.0,6.7269110679626465,266.8705749511719,21.337995529174805
20.0,6.873677730560303,223.81748962402344,21.371171951293945
22.0,7.0002851486206055,214.10482788085938,21.397968292236328
24.0,7.11610221862793,184.77297973632812,21.42477035522461
26.0,7.217767238616943,162.95240783691406,21.44391441345215
28.0,7.307976245880127,144.2876434326172,21.46465492248535
30.0,7.3875041007995605,125.7026596069336,21.48220443725586
32.0,7.457184314727783,109.66908264160156,21.501352310180664
34.0,7.517519950866699,96.5594253540039,21.51539421081543
36.0,7.571398735046387,83.51917266845703,21.523054122924805
38.0,7.617639064788818,74.52491760253906,21.538373947143555
40.0,7.658255100250244,64.67084503173828,21.54635238647461
42.0,7.693295001983643,49.63468933105469,21.553693771362305
44.0,7.7232255935668945,50.00369644165039,21.56167221069336
46.0,7.751028060913086,44.61543655395508,21.57061004638672
48.0,7.77537202835083,38.29661560058594,21.577951431274414
50.0,7.796687126159668,34.148555755615234,21.583377838134766
52.0,7.8154754638671875,29.536252975463867,21.586889266967773
54.0,7.831787109375,25.502063751220703,21.591997146606445
56.0,7.8458251953125,22.74359703063965,21.595827102661133
58.0,7.858457088470459,19.448198318481445,21.59869956970215
60.0,7.869472503662109,17.376502990722656,21.60253143310547
62.0,7.878939628601074,14.824846267700195,21.605085372924805
64.0,7.887386322021484,13.535400390625,21.607318878173828
66.0,7.894891738891602,11.561836242675781,21.610191345214844
68.0,7.901388645172119,10.848036766052246,21.6124267578125
70.0,7.9071245193481445,8.886343002319336,21.616256713867188
72.0,7.912326335906982,8.272037506103516,21.61785316467285
74.0,7.916791915893555,7.664565563201904,21.6165771484375
76.0,7.920666217803955,6.375865936279297,21.62136459350586
78.0,7.924137592315674,5.293901443481445,21.62136459350586
80.0,7.927181720733643,4.796599388122559,21.623918533325195
82.0,7.929791450500488,3.6305599212646484,21.62519645690918
84.0,7.932266712188721,3.150879144668579,21.626792907714844
86.0,7.934250354766846,3.7000746726989746,21.629026412963867
88.0,7.936470031738281,2.3182098865509033,21.627750396728516
90.0,7.937624454498291,3.2464442253112793,21.63062286376953
92.0,7.939321041107178,2.5620903968811035,21.633176803588867
94.0,7.940683841705322,2.361767530441284,21.631580352783203
96.0,7.941868305206299,2.111168622970581,21.631580352783203
98.0,7.943003177642822,1.9149812459945679,21.63413429260254
100.0,7.943976402282715,1.649334192276001,21.633176803588867
102.0,7.944798946380615,1.352171778678894,21.63445472717285
104.0,7.945622444152832,1.0724724531173706,21.635412216186523
106.0,7.945974826812744,1.0244321823120117,21.637008666992188
108.0,7.946394443511963,1.168919324874878,21.636688232421875
110.0,7.9470367431640625,0.8270726203918457,21.637008666992188


SET U 1.1
Time [s],Measured value [mV],Volume [mL],dV/dt [µL/min],Temperature [°C]
0.0,-56.88954544067383,0.0,0.0,21.640520095825195
2.0016000270843506,-56.88302993774414,0.047999996691942215,1731.380615234375,21.639562606811523
4.001399993896484,-55.48207092285156,0.15699999034404755,3222.078369140625,21.640838623046875
6.00160026550293,-51.487125396728516,0.3240000009536743,4847.88330078125,21.636688232421875
8.001399993896484,-46.86012649536133,0.5400000214576721,6331.56884765625,21.640838623046875
10.001199722290039,-40.63966369628906,0.7989999651908875,7648.63427734375,21.64339256286621
12.001399993896484,-32.13801193237305,1.097000002861023,8820.0244140625,21.641796112060547
14.001500129699707,-5.22873067855835,1.4259998798370361,9814.06640625,21.641796112060547
16.001501083374023,106.39398193359375,1.6959998607635498,9571.3330078125,21.644351959228516
18.00160026550293,193.57504272460938,1.6959998607635498,7829.505859375,21.644351959228516
20.001100540161133,208.8656768798828,1.6959998607635498,6769.00244140625,21.645946502685547
22.00119972229004,210.6094512939453,1.6959998607635498,5961.517578125,21.64722442626953
24.001399993896484,210.94114685058594,1.6959998607635498,4024.58203125,21.648181915283203
26.001399993896484,211.10462951660156,1.6959998607635498,708.1412353515625,21.648181915283203
28.001501083374023,211.22369384765625,1.6959998607635498,0.0,21.64722442626953
30.001699447631836,211.30186462402344,1.7009998559951782,125.17939758300781,21.649459838867188
32.00149917602539,211.4321746826172,1.7089999914169312,322.47540283203125,21.65073585510254
34.0010986328125,211.6969451904297,1.7109997272491455,181.86251831054688,21.649778366088867
36.00149917602539,211.8562774658203,1.7149999141693115,133.31124877929688,21.65073585510254
38.001399993896484,212.0831298828125,1.720999836921692,130.14883422851562,21.652013778686523
40.001399993896484,212.42430114746094,1.7299998998641968,173.93325805664062,21.652332305908203
42.0016975402832,213.00714111328125,1.7469998598098755,428.0965881347656,21.652013778686523
44.0015983581543,213.9809112548828,1.7689999341964722,718.6180419921875,21.649778366088867
46.0010986328125,214.9931640625,1.7919999361038208,684.4385986328125,21.653610229492188
48.00149917602539,216.00010681152344,1.8129998445510864,647.8427124023438,21.652332305908203
50.00149917602539,216.89035034179688,1.8339999914169312,630.3209228515625,21.65584373474121
52.001399993896484,217.72727966308594,1.8539999723434448,606.5816040039062,21.65488624572754
54.0016975402832,218.46412658691406,1.872999906539917,569.195556640625,21.656164169311523
56.0016975402832,219.21279907226562,1.8919999599456787,570.7648315429688,21.658397674560547
58.00129699707031,219.8992919921875,1.909999966621399,552.3773803710938,21.656164169311523
60.001399993896484,220.5484619140625,1.92799973487854,538.0574340820312,21.65584373474121
62.001399993896484,221.185791015625,1.9459998607635498,529.2819213867188,21.65584373474121
64.00140380859375,221.7407989501953,1.9629998207092285,518.8955078125,21.657121658325195
66.00170135498047,222.37574768066406,1.9799998998641968,513.1139526367188,21.653610229492188
68.00170135498047,222.88455200195312,1.9969998598098755,507.2479248046875,21.657121658325195
70.00130462646484,223.45138549804688,2.0139999389648438,498.5090637207031,21.658397674560547
72.00140380859375,223.96728515625,2.0299999713897705,495.89483642578125,21.656164169311523
74.00140380859375,224.47726440429688,2.045999765396118,486.8306579589844,21.65967559814453
76.00130462646484,224.941650390625,2.061999797821045,487.1628723144531,21.65871810913086
78.00170135498047,225.42259216308594,2.078000068664551,481.8019714355469,21.656164169311523
80.00170135498047,225.92428588867188,2.0939998626708984,480.3221130371094,21.65999412536621
82.00140380859375,226.38629150390625,2.109999895095825,473.9596862792969,21.65871810913086
84.00150299072266,226.84178161621094,2.125999927520752,470.7181701660156,21.65967559814453
86.00150299072266,227.22796630859375,2.1419999599456787,470.6820983886719,21.658397674560547
88.0010986328125,227.65679931640625,2.1569998264312744,469.851806640625,21.65999412536621
90.00160217285156,228.06134033203125,2.1730000972747803,470.1392517089844,21.65999412536621
92.00170135498047,228.4499053955078,2.187999963760376,468.6403503417969,21.65999412536621
94.00170135498047,228.83609008789062,2.197999954223633,443.7997741699219,21.661272048950195
96.0011978149414,229.00430297851562,2.197999954223633,389.7897644042969,21.65967559814453
98.0011978149414,229.05227661132812,2.197999954223633,347.49932861328125,21.661272048950195
100.00140380859375,229.09669494628906,2.197999954223633,313.4873962402344,21.65967559814453
102.00130462646484,229.09669494628906,2.197999954223633,175.04000854492188,21.65999412536621
104.00150299072266,229.1038055419922,2.197999954223633,18.194591522216797,21.65967559814453
105.30170440673828,229.11566162109375,2.197999954223633,8.456408500671387,21.65999412536621
