2024-08-20 13:11:44 UTC-7
-30acaaaa:19170784458:-7e22

pH Measure.1
Time [s],Measured value,dU/dt [mV/min],Temperature [°C]
0.0,4.440788269042969,0.0,21.10999298095703
2.0,4.649612903594971,869.4620971679688,21.113819122314453
4.0,5.063614845275879,550.07470703125,21.14155387878418
6.0,5.354968547821045,437.001220703125,21.174711227416992
8.0,5.594815254211426,378.3747253417969,21.20787239074707
10.0,5.8049092292785645,338.8555908203125,21.240079879760742
12.0,5.9943437576293945,307.4356689453125,21.266550064086914
14.0,6.167999267578125,286.2431945800781,21.290788650512695
16.0,6.325747489929199,252.43609619140625,21.311519622802734
18.0,6.468246936798096,236.2371826171875,21.331615447998047
20.0,6.5988664627075195,210.91824340820312,21.345970153808594
22.0,6.718286991119385,196.71983337402344,21.362558364868164
24.0,6.8273515701293945,177.20533752441406,21.375
26.0,6.923727512359619,155.1160430908203,21.385526657104492
28.0,7.0118513107299805,137.67440795898438,21.395736694335938
30.0,7.089855194091797,129.75885009765625,21.40435028076172
32.0,7.162716388702393,115.30030822753906,21.412006378173828
34.0,7.226840496063232,103.9765853881836,21.41838836669922
36.0,7.284698963165283,96.58369445800781,21.42477035522461
38.0,7.337419509887695,82.46326446533203,21.428916931152344
40.0,7.384016036987305,78.45629119873047,21.434980392456055
42.0,7.42663049697876,67.09005737304688,21.43880844116211
44.0,7.46397066116333,62.472835540771484,21.44391441345215
46.0,7.498420715332031,55.26060104370117,21.447742462158203
48.0,7.529064655303955,49.97838592529297,21.449018478393555
50.0,7.556525230407715,43.635169982910156,21.453166961669922
52.0,7.5812177658081055,40.78192901611328,21.45699691772461
54.0,7.604283332824707,34.929500579833984,21.45699691772461
56.0,7.624011039733887,30.611555099487305,21.460506439208984
58.0,7.641791820526123,28.960290908813477,21.462100982666016
60.0,7.657516956329346,25.89107894897461,21.46465492248535
62.0,7.6719841957092285,22.14336585998535,21.46337890625
64.0,7.684751510620117,21.338436126708984,21.468164443969727
66.0,7.696423053741455,18.401962280273438,21.46976089477539
68.0,7.70671272277832,17.522737503051758,21.472312927246094
70.0,7.71616792678833,14.848982810974121,21.46976089477539
72.0,7.724496364593506,11.631258010864258,21.472312927246094
74.0,7.731872081756592,11.721940994262695,21.471994400024414
76.0,7.73875617980957,11.025278091430664,21.472312927246094
78.0,7.74506950378418,9.467329025268555,21.47582244873047
80.0,7.7506422996521,8.874825477600098,21.477418899536133
82.0,7.7556891441345215,7.9015212059021,21.47709846496582
84.0,7.760241508483887,7.067134857177734,21.478376388549805
86.0,7.764371395111084,6.591206073760986,21.47709846496582
88.0,7.768122673034668,5.375157833099365,21.479970932006836
90.0,7.771501064300537,5.389400482177734,21.480928421020508
92.0,7.774636745452881,5.144548416137695,21.480928421020508
94.0,7.777403831481934,4.6744065284729,21.481246948242188
96.0,7.779886722564697,4.774068832397461,21.480928421020508
98.0,7.782205581665039,3.8831214904785156,21.480928421020508
100.0,7.784282207489014,3.59781813621521,21.483482360839844
102.0,7.786188125610352,2.277348279953003,21.481246948242188
104.0,7.78790807723999,2.941587448120117,21.483482360839844
106.0,7.7894086837768555,3.0594680309295654,21.483800888061523
108.0,7.79090690612793,2.5796008110046387,21.485076904296875
110.0,7.792214393615723,2.5819902420043945,21.485076904296875
112.0,7.7930755615234375,2.4284958839416504,21.483800888061523
114.0,7.794260501861572,2.1905832290649414,21.483800888061523
116.0,7.795264720916748,1.666351556777954,21.486352920532227
118.0,7.796212196350098,1.2473571300506592,21.483482360839844
120.0,7.796545028686523,1.4794005155563354,21.485076904296875
122.0,7.797194957733154,1.435850977897644,21.486352920532227
124.0,7.7980055809021,1.2437562942504883,21.485076904296875
126.0,7.798713207244873,1.0852628946304321,21.48763084411621
128.0,7.799224853515625,1.0396604537963867,21.4873104095459
130.0,7.799551010131836,0.8961912989616394,21.48763084411621
132.0,7.800103187561035,0.8718177676200867,21.483800888061523


SET U 1.1
Time [s],Measured value [mV],Volume [mL],dV/dt [µL/min],Temperature [°C]
0.0,-48.336307525634766,0.0,0.0,21.488588333129883
2.001499891281128,-48.224945068359375,0.047999996691942215,1731.380615234375,21.488588333129883
4.001700401306152,-45.783790588378906,0.15699999034404755,3217.719482421875,21.48763084411621
6.001899719238281,-40.21849060058594,0.3240000009536743,4846.33154296875,21.491140365600586
8.001800537109375,-31.832942962646484,0.5400000214576721,6333.9248046875,21.490182876586914
10.001500129699707,-19.778915405273438,0.7989999651908875,7645.3330078125,21.491140365600586
12.00160026550293,8.474305152893066,1.097000002861023,8819.095703125,21.489864349365234
14.001500129699707,84.33943176269531,1.3969999551773071,9736.1181640625,21.491140365600586
16.00149917602539,150.5155792236328,1.402999997138977,6299.94775390625,21.49273681640625
18.00149917602539,187.74603271484375,1.402999997138977,5420.2734375,21.491458892822266
20.001699447631836,198.55465698242188,1.402999997138977,4756.16064453125,21.493694305419922
22.00189971923828,200.25164794921875,1.402999997138977,4107.9306640625,21.494970321655273
24.00149917602539,200.56675720214844,1.402999997138977,874.4273681640625,21.496246337890625
26.00149917602539,200.7491912841797,1.402999997138977,-0.0,21.497522354125977
28.001300811767578,200.84869384765625,1.403999924659729,25.86206817626953,21.496564865112305
30.001699447631836,200.94110107421875,1.4079999923706055,88.0432357788086,21.49784278869629
32.00189971923828,201.07554626464844,1.412000060081482,100.35380554199219,21.494970321655273
34.0015983581543,201.33616638183594,1.4169999361038208,133.48312377929688,21.49911880493164
36.00170135498047,201.8692626953125,1.4259998798370361,215.96055603027344,21.497522354125977
38.00170135498047,202.779052734375,1.4399999380111694,409.3501281738281,21.49911880493164
40.001399993896484,204.21246337890625,1.4639999866485596,724.5032958984375,21.49784278869629
42.00170135498047,205.98526000976562,1.4889999628067017,835.37939453125,21.49784278869629
44.00189971923828,207.5910186767578,1.5149998664855957,704.7219848632812,21.49784278869629
46.00170135498047,209.06292724609375,1.5380001068115234,753.4019775390625,21.500394821166992
48.001800537109375,210.2688751220703,1.5630000829696655,662.9519653320312,21.502948760986328
50.00170135498047,211.77749633789062,1.5859999656677246,765.8397827148438,21.501352310180664
52.001399993896484,212.93606567382812,1.6100000143051147,674.2308349609375,21.50390625
54.0015983581543,214.16807556152344,1.6330000162124634,718.7831420898438,21.500076293945312
56.00170135498047,214.997314453125,1.6549999713897705,670.4863891601562,21.502628326416016
58.00170135498047,216.05636596679688,1.6769999265670776,640.0242919921875,21.501352310180664
60.001800537109375,216.97564697265625,1.6969999074935913,612.8474731445312,21.502948760986328
62.00170135498047,217.72491455078125,1.7170000076293945,594.602783203125,21.501352310180664
64.00140380859375,218.508544921875,1.7359998226165771,599.9998779296875,21.502628326416016
66.00170135498047,219.31231689453125,1.7549998760223389,563.2704467773438,21.50390625
68.00180053710938,219.98280334472656,1.7740000486373901,555.3759155273438,21.50390625
70.00160217285156,220.704833984375,1.7909998893737793,543.0652465820312,21.501352310180664
72.00189971923828,221.30722045898438,1.809000015258789,529.5615234375,21.50518226623535
74.00170135498047,221.89242553710938,1.8259999752044678,519.1341552734375,21.506458282470703
76.00140380859375,222.564697265625,1.843000054359436,510.8092346191406,21.50901222229004
78.00170135498047,223.00360107421875,1.8600000143051147,504.3707580566406,21.506776809692383
80.00180053710938,223.58348083496094,1.877000093460083,497.5124816894531,21.50518226623535
82.00170135498047,224.0981903076172,1.8930000066757202,492.0372009277344,21.50518226623535
84.00180053710938,224.65733337402344,1.909000039100647,486.5146484375,21.506776809692383
86.00170135498047,225.1761932373047,1.9249999523162842,480.9422607421875,21.506776809692383
88.00149536132812,225.64234924316406,1.9409998655319214,477.1393127441406,21.50550079345703
90.00170135498047,226.07650756835938,1.9570000171661377,478.95367431640625,21.506776809692383
92.00170135498047,226.5669403076172,1.972999930381775,474.8853759765625,21.506776809692383
94.00160217285156,226.97622680664062,1.9889999628067017,471.3209533691406,21.508054733276367
96.00189971923828,227.45777893066406,2.003999948501587,472.21771240234375,21.508054733276367
98.00170135498047,227.84100341796875,2.0199997425079346,468.75677490234375,21.50901222229004
100.00149536132812,228.37704467773438,2.0360000133514404,468.21258544921875,21.508054733276367
102.00170135498047,228.74191284179688,2.049999952316284,466.8379211425781,21.511564254760742
104.00140380859375,228.90953063964844,2.049999952316284,407.4500427246094,21.511884689331055
106.00160217285156,228.95513916015625,2.049999952316284,361.4667663574219,21.508054733276367
108.00189971923828,228.99246215820312,2.049999952316284,324.8099670410156,21.511884689331055
110.00149536132812,229.0025177001953,2.049999952316284,227.2041473388672,21.50933074951172
112.00129699707031,229.02561950683594,2.049999952316284,55.58271789550781,21.511564254760742
113.90149688720703,229.02561950683594,2.049999952316284,8.480987548828125,21.511564254760742
