2024-08-20 16:00:42 UTC-7
-30acaaaa:19170784458:-7ca2

pH Measure.1
Time [s],Measured value,dU/dt [mV/min],Temperature [°C]
0.0,4.522763252258301,0.0,20.829256057739258
2.0,4.755359649658203,771.9064331054688,20.853464126586914
4.0,5.169121742248535,593.5072631835938,20.90061378479004
6.0,5.490527629852295,507.6973876953125,20.975811004638672
8.0,5.777545928955078,478.2637634277344,21.043373107910156
10.0,6.047660827636719,433.7621765136719,21.10712432861328
12.0,6.28741455078125,384.2611999511719,21.161958694458008
14.0,6.501707553863525,350.1734924316406,21.210742950439453
16.0,6.692261695861816,300.6798095703125,21.254112243652344
18.0,6.862717151641846,281.60980224609375,21.294614791870117
20.0,7.013557434082031,241.6152801513672,21.329063415527344
22.0,7.148069381713867,212.17120361328125,21.356178283691406
24.0,7.2629075050354,180.6435546875,21.38425064086914
26.0,7.363067150115967,159.65016174316406,21.409454345703125
28.0,7.4496893882751465,140.381103515625,21.431468963623047
30.0,7.527522087097168,122.13196563720703,21.449018478393555
32.0,7.594386577606201,104.32415008544922,21.465930938720703
34.0,7.6518120765686035,89.27648162841797,21.479970932006836
36.0,7.701722621917725,77.86528015136719,21.494970321655273
38.0,7.744582653045654,68.23616790771484,21.50550079345703
40.0,7.781020164489746,60.04624557495117,21.514436721801758
42.0,7.813938617706299,52.31520462036133,21.528160095214844
44.0,7.842367649078369,46.006019592285156,21.5361385345459
46.0,7.866898536682129,37.37492370605469,21.542522430419922
48.0,7.8876471519470215,34.724056243896484,21.549863815307617
50.0,7.90629243850708,30.441818237304688,21.553693771362305
52.0,7.922624111175537,27.38877296447754,21.559120178222656
54.0,7.936957359313965,22.448345184326172,21.56646156311035
56.0,7.948967456817627,19.088455200195312,21.569013595581055
58.0,7.959559917449951,16.574596405029297,21.574121475219727
60.0,7.968599796295166,14.54224967956543,21.5792293548584
62.0,7.976284980773926,12.638516426086426,21.583377838134766
64.0,7.983184337615967,11.179800987243652,21.587207794189453
66.0,7.989485740661621,10.377054214477539,21.58976173400879
68.0,7.995146751403809,7.7313361167907715,21.588485717773438
70.0,7.999917507171631,7.775930404663086,21.59359359741211
72.0,8.004024505615234,7.080014228820801,21.595827102661133
74.0,8.007623672485352,5.59454870223999,21.597423553466797
76.0,8.010831832885742,4.656300067901611,21.59965705871582
78.0,8.01372241973877,4.91757869720459,21.602210998535156
80.0,8.016315460205078,3.651951789855957,21.605085372924805
82.0,8.01865291595459,3.785046100616455,21.55656623840332
84.0,8.020517349243164,2.1230111122131348,21.606361389160156
86.0,8.022101402282715,3.19498872756958,21.608915328979492
88.0,8.023591995239258,2.7850847244262695,21.608915328979492
90.0,8.025032043457031,1.5391701459884644,21.608596801757812
92.0,8.026294708251953,2.009125232696533,21.6124267578125
94.0,8.027288436889648,1.6973522901535034,21.608596801757812
96.0,8.028278350830078,1.3559741973876953,21.608915328979492
98.0,8.029029846191406,1.3426568508148193,21.61274528503418
100.0,8.029745101928711,0.84489506483078,21.61274528503418
102.0,8.030102729797363,1.0827256441116333,21.615299224853516
104.0,8.030487060546875,1.0043762922286987,21.6165771484375
106.0,8.03105354309082,0.9449208378791809,21.614980697631836
108.0,8.031391143798828,0.8846374154090881,21.614980697631836
110.0,8.031744003295898,0.7797548770904541,21.618810653686523


SET U 1.1
Time [s],Measured value [mV],Volume [mL],dV/dt [µL/min],Temperature [°C]
0.0,-61.78786849975586,0.0,0.0,21.618810653686523
2.0016000270843506,-61.78964614868164,0.047999996691942215,1731.380615234375,21.618810653686523
4.001700401306152,-60.26606369018555,0.15699999034404755,3222.078369140625,21.620088577270508
6.00160026550293,-56.16922378540039,0.3240000009536743,4847.88330078125,21.618810653686523
8.001399993896484,-51.41426467895508,0.5400000214576721,6331.56884765625,21.618810653686523
10.001299858093262,-45.7150764465332,0.7989999651908875,7648.63427734375,21.620088577270508
12.001399993896484,-36.43207550048828,1.097000002861023,8820.0244140625,21.619131088256836
14.001399993896484,13.627809524536133,1.4259998798370361,9814.06640625,21.621685028076172
16.001699447631836,158.76727294921875,1.5789998769760132,8660.0517578125,21.62519645690918
18.00149917602539,205.91891479492188,1.5789998769760132,7382.28369140625,21.623918533325195
20.0010986328125,211.1455078125,1.5789998769760132,6433.09716796875,21.622642517089844
22.001399993896484,211.74195861816406,1.5789998769760132,5700.1884765625,21.626792907714844
24.001197814941406,211.96763610839844,1.5789998769760132,2933.433837890625,21.62519645690918
26.001399993896484,212.10682678222656,1.5789998769760132,108.99674987792969,21.626792907714844
28.00149917602539,212.2181854248047,1.5789998769760132,0.0,21.62551498413086
30.001697540283203,212.2779998779297,1.5870000123977661,253.435546875,21.62519645690918
32.001399993896484,212.55224609375,1.5929999351501465,304.6143798828125,21.627750396728516
34.0010986328125,212.78916931152344,1.596000075340271,189.7296142578125,21.629026412963867
36.00149917602539,212.94317626953125,1.5999999046325684,130.5314483642578,21.628068923950195
38.001399993896484,213.1492919921875,1.6059999465942383,131.48179626464844,21.629026412963867
40.00149917602539,213.52423095703125,1.6169999837875366,176.94375610351562,21.628068923950195
42.0016975402832,214.16334533691406,1.6339999437332153,558.0306396484375,21.63030433654785
44.00149917602539,215.1536865234375,1.6559998989105225,703.363525390625,21.629026412963867
46.001197814941406,216.15647888183594,1.6769999265670776,636.7720947265625,21.63030433654785
48.001399993896484,217.03250122070312,1.6979998350143433,621.9436645507812,21.63062286376953
50.00149917602539,217.8955078125,1.718000054359436,592.8827514648438,21.63413429260254
52.00130081176758,218.67913818359375,1.7369998693466187,569.2074584960938,21.633176803588867
54.0016975402832,219.40234375,1.7559999227523804,565.1717529296875,21.631900787353516
56.0016975402832,220.13385009765625,1.7740000486373901,545.6859741210938,21.631900787353516
58.00130081176758,220.7836151123047,1.7919999361038208,536.046875,21.631900787353516
60.00130081176758,221.37356567382812,1.809000015258789,528.0783081054688,21.63445472717285
62.001399993896484,222.02273559570312,1.8259999752044678,520.3274536132812,21.63413429260254
64.00140380859375,222.6144561767578,1.843000054359436,514.9072875976562,21.636688232421875
66.00170135498047,223.17417907714844,1.8600000143051147,501.3480224609375,21.635412216186523
68.00170135498047,223.7404327392578,1.877000093460083,498.59112548828125,21.635412216186523
70.00130462646484,224.23324584960938,1.8930000066757202,492.1116638183594,21.635412216186523
72.00150299072266,224.7426300048828,1.909000039100647,485.89947509765625,21.635412216186523
74.00130462646484,225.2537841796875,1.9249999523162842,480.9422607421875,21.63445472717285
76.00130462646484,225.68972778320312,1.9409998655319214,477.1393127441406,21.637008666992188
78.00170135498047,226.18016052246094,1.9570000171661377,475.8091735839844,21.636688232421875
80.00170135498047,226.6326904296875,1.972999930381775,473.6082458496094,21.63413429260254
82.00140380859375,227.08106994628906,1.9889999628067017,472.31744384765625,21.635412216186523
84.00150299072266,227.57090759277344,2.003999948501587,467.7982177734375,21.636688232421875
86.00150299072266,227.98374938964844,2.0199997425079346,468.1261901855469,21.63796615600586
88.00120544433594,228.3936309814453,2.0349998474121094,470.158935546875,21.636688232421875
90.00140380859375,228.81298828125,2.0480000972747803,456.95416259765625,21.63828468322754
92.00140380859375,229.00430297851562,2.0480000972747803,399.90069580078125,21.63828468322754
94.00170135498047,229.0428009033203,2.0480000972747803,355.5128173828125,21.63796615600586
96.00130462646484,229.07833862304688,2.0480000972747803,319.9942932128906,21.640520095825195
98.00120544433594,229.089599609375,2.0480000972747803,209.2528076171875,21.63828468322754
100.00140380859375,229.1038055419922,2.0480000972747803,41.30763244628906,21.63828468322754
101.70159912109375,229.1109161376953,2.0480000972747803,8.417641639709473,21.639562606811523
