2024-08-20 13:28:02 UTC-7
-30acaaaa:19170784458:-7dfe

pH Measure.1
Time [s],Measured value,dU/dt [mV/min],Temperature [°C]
0.0,4.538602828979492,0.0,21.35873031616211
2.0,4.778671741485596,726.8553466796875,21.35873031616211
4.0,5.150212287902832,510.8763427734375,21.37627601623535
6.0,5.428035736083984,423.3983154296875,21.40594482421875
8.0,5.662300109863281,378.9388122558594,21.434022903442383
10.0,5.874151229858398,346.5411071777344,21.462100982666016
12.0,6.067613124847412,321.6556396484375,21.484758377075195
14.0,6.246218204498291,290.4871520996094,21.50390625
16.0,6.407376289367676,264.8026123046875,21.522096633911133
18.0,6.554807662963867,238.51202392578125,21.538373947143555
20.0,6.6891608238220215,214.20358276367188,21.552417755126953
22.0,6.809876441955566,198.3802947998047,21.560077667236328
24.0,6.919610023498535,178.6514129638672,21.575397491455078
26.0,7.016805648803711,157.2185821533203,21.58465576171875
28.0,7.105531215667725,141.38414001464844,21.59359359741211
30.0,7.185024261474609,128.4948272705078,21.59965705871582
32.0,7.256345272064209,116.32083892822266,21.606361389160156
34.0,7.32039737701416,104.5577621459961,21.609872817993164
36.0,7.378116130828857,93.14940643310547,21.614980697631836
38.0,7.4300360679626465,86.65647888183594,21.618810653686523
40.0,7.476643085479736,74.72944641113281,21.624238967895508
42.0,7.518106460571289,64.225830078125,21.628068923950195
44.0,7.554813385009766,59.6109733581543,21.63062286376953
46.0,7.587801456451416,53.55257034301758,21.63413429260254
48.0,7.61726188659668,48.52226638793945,21.635412216186523
50.0,7.643669605255127,42.25210952758789,21.627750396728516
52.0,7.667352199554443,37.545166015625,21.641796112060547
54.0,7.688616752624512,33.1278190612793,21.641796112060547
56.0,7.707512855529785,30.549320220947266,21.645946502685547
58.0,7.724307537078857,26.245412826538086,21.649459838867188
60.0,7.739248752593994,25.164026260375977,21.64690589904785
62.0,7.752799034118652,22.12527847290039,21.649459838867188
64.0,7.764884948730469,18.66107749938965,21.649778366088867
66.0,7.775777816772461,16.086198806762695,21.653289794921875
68.0,7.785489082336426,15.674727439880371,21.652332305908203
70.0,7.794224739074707,12.947360038757324,21.653289794921875
72.0,7.802058219909668,12.314667701721191,21.652013778686523
74.0,7.808770656585693,11.5277681350708,21.653610229492188
76.0,7.815299987792969,10.093823432922363,21.65488624572754
78.0,7.820955753326416,9.815314292907715,21.658397674560547
80.0,7.826043128967285,8.763833999633789,21.657121658325195
82.0,7.830618858337402,7.581161975860596,21.65967559814453
84.0,7.834796905517578,6.629864692687988,21.65871810913086
86.0,7.83863639831543,6.161402702331543,21.658397674560547
88.0,7.84205961227417,5.307490825653076,21.657121658325195
90.0,7.8450608253479,4.901077747344971,21.657121658325195
92.0,7.847803115844727,4.447380542755127,21.658397674560547
94.0,7.85032844543457,3.405625104904175,21.657121658325195
96.0,7.852474689483643,3.0447773933410645,21.65967559814453
98.0,7.854447841644287,3.3918490409851074,21.65871810913086
100.0,7.856285095214844,3.1039695739746094,21.65871810913086
102.0,7.857917308807373,2.3853917121887207,21.66254997253418
104.0,7.859380722045898,2.5143978595733643,21.661272048950195
106.0,7.860803604125977,2.5920517444610596,21.65999412536621
108.0,7.861978530883789,2.3296711444854736,21.65967559814453
110.0,7.86317253112793,1.5773249864578247,21.65967559814453
112.0,7.86394739151001,1.7718403339385986,21.65999412536621
114.0,7.864856243133545,1.5177490711212158,21.65999412536621
116.0,7.865730285644531,1.140183448791504,21.661272048950195
118.0,7.866448402404785,0.9114447832107544,21.65999412536621
120.0,7.866795539855957,1.138745903968811,21.65999412536621
122.0,7.867128372192383,1.0640590190887451,21.661272048950195
124.0,7.867462635040283,1.1214241981506348,21.662229537963867
126.0,7.868105888366699,0.9533410668373108,21.662229537963867
128.0,7.868687629699707,0.8666930198669434,21.662229537963867


SET U 1.1
Time [s],Measured value [mV],Volume [mL],dV/dt [µL/min],Temperature [°C]
0.0,-52.35435485839844,0.0,0.0,21.66254997253418
2.001300096511841,-52.321773529052734,0.047999996691942215,1731.380615234375,21.66350746154785
4.001500129699707,-50.31186294555664,0.15699999034404755,3217.719482421875,21.65967559814453
6.001499652862549,-45.829402923583984,0.3240000009536743,4846.33154296875,21.662229537963867
8.001800537109375,-39.7913932800293,0.5400000214576721,6337.7802734375,21.66254997253418
10.00149917602539,-30.216970443725586,0.7989999651908875,7648.7822265625,21.662229537963867
12.00160026550293,-11.32471752166748,1.097000002861023,8817.3193359375,21.65967559814453
14.001300811767578,46.84398651123047,1.4259998798370361,9815.541015625,21.662229537963867
16.00119972229004,146.522705078125,1.501999855041504,7142.39892578125,21.66350746154785
18.00119972229004,193.0064239501953,1.501999855041504,6096.275390625,21.661272048950195
20.00160026550293,202.58950805664062,1.501999855041504,5317.44580078125,21.66350746154785
22.001800537109375,203.79783630371094,1.501999855041504,4715.07177734375,21.666379928588867
24.00149917602539,204.04957580566406,1.501999855041504,1758.7652587890625,21.664783477783203
26.001399993896484,204.2006072998047,1.501999855041504,1.776504397392273,21.665103912353516
28.00160026550293,204.29833984375,1.5029999017715454,0.0,21.66765785217285
30.001399993896484,204.34573364257812,1.5080000162124634,115.01924896240234,21.666379928588867
32.0015983581543,204.4612274169922,1.5110000371932983,124.87078094482422,21.666061401367188
34.0015983581543,204.64898681640625,1.5149998664855957,117.9504623413086,21.66765785217285
36.001800537109375,204.927978515625,1.5209999084472656,138.8601531982422,21.666061401367188
38.0015983581543,205.38819885253906,1.5309998989105225,221.54164123535156,21.665103912353516
40.00130081176758,206.2642364501953,1.5479998588562012,504.7601318359375,21.666061401367188
42.0015983581543,207.51046752929688,1.5750000476837158,802.7054443359375,21.665103912353516
44.0015983581543,209.21218872070312,1.5969998836517334,810.2364501953125,21.668615341186523
46.00149917602539,210.17825317382812,1.61899995803833,555.9235229492188,21.665103912353516
48.001800537109375,211.441650390625,1.6449998617172241,817.969482421875,21.66765785217285
50.0015983581543,212.7945098876953,1.6699999570846558,750.7520751953125,21.668933868408203
52.00130081176758,213.9287872314453,1.693000078201294,706.4249267578125,21.669893264770508
54.0015983581543,214.9854736328125,1.7160000801086426,673.5670166015625,21.668933868408203
56.0015983581543,215.86920166015625,1.7369998693466187,648.0258178710938,21.668615341186523
58.00149917602539,216.66290283203125,1.7579998970031738,632.0794067382812,21.669893264770508
60.001800537109375,217.54722595214844,1.777999758720398,602.541748046875,21.67116928100586
62.0015983581543,218.2905731201172,1.7969999313354492,594.4322509765625,21.668933868408203
64.00129699707031,218.99424743652344,1.815999984741211,570.298095703125,21.669893264770508
66.00159454345703,219.65821838378906,1.8350000381469727,557.8723754882812,21.668615341186523
68.00159454345703,220.29318237304688,1.8529999256134033,546.171875,21.67116928100586
70.00149536132812,220.93051147460938,1.870999813079834,534.677001953125,21.669893264770508
72.00169372558594,221.51571655273438,1.8879998922348022,524.4117431640625,21.668933868408203
74.00169372558594,222.0890655517578,1.904999852180481,519.9627075195312,21.668933868408203
76.00139617919922,222.5860137939453,1.9219999313354492,512.5569458007812,21.669893264770508
78.00159454345703,223.18307495117188,1.938999891281128,501.07568359375,21.669893264770508
80.00159454345703,223.62374877929688,1.9559999704360962,498.59112548828125,21.668933868408203
82.00149536132812,224.107666015625,1.9719998836517334,493.6174011230469,21.66765785217285
84.00179290771484,224.5809326171875,1.9879997968673706,483.8249206542969,21.668933868408203
86.00169372558594,225.1122283935547,2.003999948501587,485.546875,21.668933868408203
88.00139617919922,225.52210998535156,2.0199997425079346,481.8689270019531,21.67116928100586
90.00149536132812,226.01905822753906,2.0360000133514404,474.8884582519531,21.669893264770508
92.00159454345703,226.4508514404297,2.052000045776367,474.11602783203125,21.668933868408203
94.00149536132812,226.83407592773438,2.067999839782715,473.2702941894531,21.668933868408203
96.00179290771484,227.25579833984375,2.0840001106262207,471.7430114746094,21.67116928100586
98.00179290771484,227.65916442871094,2.0989999771118164,467.7982177734375,21.668615341186523
100.0011978149414,228.0714111328125,2.115000009536743,468.1261901855469,21.669893264770508
102.00159454345703,228.4599609375,2.129999876022339,467.3851623535156,21.668933868408203
104.00139617919922,228.78929138183594,2.1389999389648438,441.2756652832031,21.668615341186523
106.00128936767578,228.8953094482422,2.1389999389648438,387.8412780761719,21.671489715576172
108.00179290771484,228.92433166503906,2.1389999389648438,345.9499206542969,21.671489715576172
110.00159454345703,228.92433166503906,2.1389999389648438,312.22589111328125,21.67116928100586
112.00128936767578,228.92848205566406,2.1389999389648438,166.38462829589844,21.669893264770508
114.00149536132812,228.92137145996094,2.1389999389648438,13.483146667480469,21.67116928100586
115.20149993896484,228.92848205566406,2.1389999389648438,8.417641639709473,21.67116928100586
