2024-08-20 13:33:35 UTC-7
-30acaaaa:19170784458:-7df2

pH Measure.1
Time [s],Measured value,dU/dt [mV/min],Temperature [°C]
0.0,4.541441917419434,0.0,21.494970321655273
2.0,4.767667770385742,753.9818115234375,21.491458892822266
4.0,5.144930362701416,519.0184326171875,21.500076293945312
6.0,5.422242164611816,420.87548828125,21.512842178344727
8.0,5.655953407287598,379.4635925292969,21.53199005126953
10.0,5.868071556091309,338.5423278808594,21.54635238647461
12.0,6.058194637298584,306.5443115234375,21.560396194458008
14.0,6.232574939727783,284.9436950683594,21.574121475219727
16.0,6.39423942565918,267.61175537109375,21.583377838134766
18.0,6.541969299316406,232.28289794921875,21.59359359741211
20.0,6.673237323760986,218.03720092773438,21.599977493286133
22.0,6.7941694259643555,196.7349853515625,21.608915328979492
24.0,6.903076648712158,175.3220672607422,21.61274528503418
26.0,7.000301361083984,162.36087036132812,21.622642517089844
28.0,7.0900492668151855,142.15383911132812,21.626792907714844
30.0,7.168891906738281,128.80091857910156,21.63030433654785
32.0,7.240884304046631,120.72567749023438,21.631900787353516
34.0,7.306185245513916,106.51335906982422,21.637008666992188
36.0,7.365198612213135,94.86542510986328,21.639562606811523
38.0,7.417726993560791,82.91089630126953,21.64339256286621
40.0,7.464276313781738,74.1661605834961,21.644670486450195
42.0,7.5057597160339355,68.88052368164062,21.64690589904785
44.0,7.543426513671875,58.38956832885742,21.648181915283203
46.0,7.575993061065674,55.810768127441406,21.652332305908203
48.0,7.6059136390686035,47.366973876953125,21.652332305908203
50.0,7.632472991943359,42.56010818481445,21.653610229492188
52.0,7.656435966491699,39.42263412475586,21.656164169311523
54.0,7.677618026733398,32.75403594970703,21.656164169311523
56.0,7.696476459503174,30.289794921875,21.65871810913086
58.0,7.7133684158325195,28.578683853149414,21.65967559814453
60.0,7.729105472564697,25.505403518676758,21.661272048950195
62.0,7.743032455444336,21.50819206237793,21.65999412536621
64.0,7.7552618980407715,19.306089401245117,21.65999412536621
66.0,7.766232013702393,17.980112075805664,21.661272048950195
68.0,7.7760725021362305,13.54249382019043,21.661272048950195
70.0,7.784613132476807,14.405049324035645,21.66254997253418
72.0,7.792718410491943,12.887533187866211,21.66254997253418
74.0,7.799932956695557,11.490882873535156,21.66350746154785
76.0,7.806316375732422,10.239163398742676,21.65871810913086
78.0,7.812260627746582,8.994536399841309,21.664783477783203
80.0,7.817348480224609,8.612707138061523,21.65967559814453
82.0,7.822066783905029,7.214340686798096,21.666061401367188
84.0,7.8261637687683105,7.6795172691345215,21.664783477783203
86.0,7.8300933837890625,6.1369309425354,21.664783477783203
88.0,7.833573818206787,4.954408645629883,21.665103912353516
90.0,7.836575508117676,5.159649848937988,21.664783477783203
92.0,7.839378356933594,4.685849666595459,21.666379928588867
94.0,7.841977596282959,3.532391309738159,21.66765785217285
96.0,7.8442230224609375,3.690722942352295,21.66765785217285
98.0,7.846323013305664,2.784170150756836,21.668615341186523
100.0,7.848092079162598,2.4292025566101074,21.66765785217285
102.0,7.849761962890625,2.5617926120758057,21.668933868408203
104.0,7.851276874542236,2.6751749515533447,21.66765785217285
106.0,7.8526482582092285,2.4350826740264893,21.666379928588867
108.0,7.854040145874023,1.5401407480239868,21.668615341186523
110.0,7.8549041748046875,1.8017501831054688,21.666379928588867
112.0,7.855992794036865,1.725419282913208,21.66765785217285
114.0,7.856870651245117,1.5276085138320923,21.66765785217285
116.0,7.857462406158447,1.7218700647354126,21.67116928100586
118.0,7.858279228210449,1.3839465379714966,21.66765785217285
120.0,7.8588032722473145,1.1700949668884277,21.669893264770508
122.0,7.859336853027344,0.9220300316810608,21.668933868408203
124.0,7.859632968902588,1.0777814388275146,21.668933868408203
126.0,7.860239028930664,1.0662672519683838,21.67116928100586
128.0,7.860869407653809,0.8593687415122986,21.668615341186523
130.0,7.861402988433838,0.775740921497345,21.66765785217285


SET U 1.1
Time [s],Measured value [mV],Volume [mL],dV/dt [µL/min],Temperature [°C]
0.0,-51.92844009399414,0.0,0.0,21.672447204589844
2.001699924468994,-51.8431396484375,0.047999996691942215,1731.380615234375,21.67116928100586
4.001700401306152,-49.92326736450195,0.15699999034404755,3217.719482421875,21.671489715576172
6.001399993896484,-45.10434341430664,0.3240000009536743,4846.33154296875,21.668933868408203
8.001399993896484,-39.29202651977539,0.5400000214576721,6331.56884765625,21.668933868408203
10.001199722290039,-31.09307861328125,0.7989999651908875,7653.099609375,21.67116928100586
12.001399993896484,-9.79879379272461,1.097000002861023,8817.26953125,21.671489715576172
14.00160026550293,56.79128646850586,1.4259998798370361,9814.3076171875,21.669893264770508
16.001699447631836,153.4890594482422,1.4819999933242798,7710.7822265625,21.671489715576172
18.00119972229004,194.79759216308594,1.4819999933242798,6604.87548828125,21.672447204589844
20.00119972229004,202.8619842529297,1.4819999933242798,5776.40380859375,21.672765731811523
22.00149917602539,204.01165771484375,1.4819999933242798,5012.47216796875,21.674043655395508
24.00119972229004,204.26220703125,1.4819999933242798,1611.3001708984375,21.674043655395508
26.001399993896484,204.4185791015625,1.4819999933242798,0.0,21.672765731811523
28.001399993896484,204.51869201660156,1.4830000400543213,30.454132080078125,21.67500114440918
30.001598358154297,204.59449768066406,1.4880000352859497,133.19635009765625,21.672447204589844
32.001399993896484,204.71533203125,1.4909999370574951,124.05022430419922,21.674043655395508
34.00130081176758,204.90724182128906,1.4950000047683716,116.17295837402344,21.671489715576172
36.00149917602539,205.19155883789062,1.500999927520752,144.1878204345703,21.67500114440918
38.0015983581543,205.70094299316406,1.5119999647140503,237.58482360839844,21.67500114440918
40.001399993896484,206.5633544921875,1.5290000438690186,518.256103515625,21.67531967163086
42.0016975402832,208.038818359375,1.555999994277954,824.64208984375,21.67531967163086
44.00149917602539,209.64517211914062,1.584999918937683,899.5587158203125,21.67627716064453
46.00120162963867,211.07383728027344,1.6049998998641968,678.2000122070312,21.67531967163086
48.00149917602539,212.04818725585938,1.6279997825622559,602.1283569335938,21.677555084228516
50.0015983581543,213.26065063476562,1.6519999504089355,753.9890747070312,21.67627716064453
52.00149917602539,214.371826171875,1.6749999523162842,694.5575561523438,21.67627716064453
54.0015983581543,215.23719787597656,1.6969999074935913,665.67041015625,21.6788330078125
56.00149917602539,216.2222137451172,1.718000054359436,638.3822021484375,21.680429458618164
58.00120162963867,217.19598388671875,1.7379999160766602,600.3043212890625,21.67915153503418
60.00149917602539,217.9138641357422,1.7579998970031738,599.9998779296875,21.677555084228516
62.001399993896484,218.7596893310547,1.777000069618225,594.4833984375,21.677873611450195
64.00149536132812,219.3970184326172,1.7959998846054077,555.9650268554688,21.64690589904785
66.00169372558594,220.1054229736328,1.813999891281128,553.1026000976562,21.67500114440918
68.00149536132812,220.6953582763672,1.8320000171661377,538.1136474609375,21.677555084228516
70.00129699707031,221.3759307861328,1.8499999046325684,527.1085205078125,21.677873611450195
72.00149536132812,221.9368438720703,1.8669999837875366,519.4663696289062,21.677873611450195
74.00149536132812,222.54396057128906,1.8839999437332153,509.939208984375,21.677873611450195
76.00139617919922,223.03439331054688,1.9010000228881836,506.3177795410156,21.677555084228516
78.00169372558594,223.62374877929688,1.9169999361038208,495.1328430175781,21.67531967163086
80.00159454345703,224.11181640625,1.934000015258789,491.7867126464844,21.677555084228516
82.00109100341797,224.5862579345703,1.9499999284744263,487.1799011230469,21.67627716064453
84.00149536132812,225.07846069335938,1.9660000801086426,486.2364501953125,21.67627716064453
86.00149536132812,225.51499938964844,1.9819999933242798,481.5780029296875,21.67531967163086
88.00139617919922,226.02438354492188,1.997999906539917,472.4788818359375,21.67531967163086
90.00169372558594,226.43130493164062,2.0139999389648438,473.6277770996094,21.677873611450195
92.00149536132812,226.87672424316406,2.0289998054504395,474.507568359375,21.67627716064453
94.00109100341797,227.36952209472656,2.0450000762939453,471.2129821777344,21.677555084228516
96.00129699707031,227.75808715820312,2.060999870300293,470.2512512207031,21.677873611450195
98.00149536132812,228.22067260742188,2.0759999752044678,469.34405517578125,21.67531967163086
100.00149536132812,228.6258087158203,2.0920000076293945,469.0473327636719,21.67531967163086
102.00139617919922,228.881103515625,2.0959999561309814,424.34698486328125,21.67531967163086
104.00149536132812,228.96461486816406,2.0959999561309814,374.7030944824219,21.677555084228516
106.00159454345703,228.98297119140625,2.0959999561309814,335.4582824707031,21.67627716064453
108.00109100341797,228.9995574951172,2.0959999561309814,279.1939392089844,21.67531967163086
110.00109100341797,229.01377868652344,2.0959999561309814,112.60613250732422,21.67531967163086
112.00139617919922,229.009033203125,2.0959999561309814,8.96728801727295,21.67627716064453
112.60149383544922,229.00726318359375,2.0959999561309814,8.456408500671387,21.677873611450195
