2024-08-20 16:22:17 UTC-7
-30acaaaa:19170784458:-7c72

pH Measure.1
Time [s],Measured value,dU/dt [mV/min],Temperature [°C]
0.0,4.522607803344727,0.0,20.824159622192383
2.0,4.739622592926025,697.643310546875,20.84868621826172
4.0,5.109437942504883,522.9285278320312,20.894241333007812
6.0,5.38409423828125,407.18426513671875,20.966888427734375
8.0,5.610719680786133,371.40911865234375,21.02552604675293
10.0,5.817092418670654,335.4525451660156,21.085447311401367
12.0,6.0051798820495605,310.8516845703125,21.132627487182617
14.0,6.18004846572876,296.2629089355469,21.179813385009766
16.0,6.3440046310424805,262.3331298828125,21.22190284729004
18.0,6.490347862243652,238.26571655273438,21.26017189025879
20.0,6.6258721351623535,222.8816680908203,21.290788650512695
22.0,6.747925758361816,198.1885223388672,21.31630516052246
24.0,6.857870101928711,179.9742889404297,21.34182357788086
26.0,6.95755672454834,158.31268310546875,21.365110397338867
28.0,7.047624588012695,149.13906860351562,21.38393211364746
30.0,7.130417346954346,133.85073852539062,21.402116775512695
32.0,7.205653667449951,117.01923370361328,21.416154861450195
34.0,7.272136688232422,109.69722747802734,21.431150436401367
36.0,7.332571506500244,96.17314910888672,21.441680908203125
38.0,7.385838031768799,85.76512145996094,21.454124450683594
40.0,7.433107376098633,76.75906372070312,21.45189094543457
42.0,7.475334644317627,67.46890258789062,21.471036911010742
44.0,7.5135393142700195,61.92281723022461,21.480928421020508
46.0,7.547082424163818,54.00735092163086,21.486352920532227
48.0,7.577374458312988,49.78094482421875,21.49273681640625
50.0,7.604466438293457,41.9583854675293,21.500076293945312
52.0,7.6286797523498535,38.79692459106445,21.501352310180664
54.0,7.6500749588012695,35.23263168334961,21.506776809692383
56.0,7.669253826141357,30.93234634399414,21.511884689331055
58.0,7.686280727386475,27.38037109375,21.51539421081543
60.0,7.701488494873047,24.708948135375977,21.519224166870117
62.0,7.715149879455566,21.733556747436523,21.52082061767578
64.0,7.727232933044434,19.88724136352539,21.524330139160156
66.0,7.738293170928955,17.627029418945312,21.528160095214844
68.0,7.747933387756348,15.551358222961426,21.528478622436523
70.0,7.756495952606201,13.658675193786621,21.53071403503418
72.0,7.763906002044678,12.989490509033203,21.52465057373047
74.0,7.770854473114014,11.1880521774292,21.534543991088867
76.0,7.777263641357422,9.515432357788086,21.5361385345459
78.0,7.7827887535095215,8.292702674865723,21.539649963378906
80.0,7.787772178649902,7.688775539398193,21.539649963378906
82.0,7.792053699493408,7.330635070800781,21.542522430419922
84.0,7.796114921569824,6.423036098480225,21.539968490600586
86.0,7.799638271331787,6.3651509284973145,21.543479919433594
88.0,7.802916526794434,5.276186466217041,21.543479919433594
90.0,7.805785179138184,4.827305793762207,21.543798446655273
92.0,7.808413505554199,4.188080310821533,21.54603385925293
94.0,7.810728073120117,3.5787408351898193,21.54730987548828
96.0,7.812769412994385,3.485164165496826,21.54762840270996
98.0,7.814808368682861,3.040558338165283,21.548906326293945
100.0,7.8165202140808105,2.600414276123047,21.550182342529297
102.0,7.818066120147705,2.326777935028076,21.548906326293945
104.0,7.819420337677002,2.151552677154541,21.550182342529297
106.0,7.820707321166992,1.2958298921585083,21.550182342529297
108.0,7.821748733520508,1.8490201234817505,21.550182342529297
110.0,7.822770118713379,1.451418161392212,21.550182342529297
112.0,7.823475360870361,1.87447190284729,21.549863815307617
114.0,7.824390888214111,1.2695095539093018,21.55113983154297
116.0,7.825172424316406,0.931167721748352,21.552736282348633
118.0,7.825611591339111,0.8844848871231079,21.552736282348633
120.0,7.825984001159668,1.208091378211975,21.55113983154297
122.0,7.826632976531982,0.9180185794830322,21.552736282348633
124.0,7.827151775360107,0.9529464840888977,21.549863815307617
126.0,7.827426910400391,0.8271967172622681,21.553693771362305


SET U 1.1
Time [s],Measured value [mV],Volume [mL],dV/dt [µL/min],Temperature [°C]
0.0,-49.9333381652832,0.0,0.0,21.55624771118164
2.001199960708618,-49.9286003112793,0.04700000211596489,1731.380615234375,21.553693771362305
4.001500129699707,-48.37895965576172,0.15699999034404755,3224.765625,21.553693771362305
6.001500129699707,-44.81052780151367,0.3240000009536743,4847.9697265625,21.554012298583984
8.001799583435059,-41.02351760864258,0.5400000214576721,6330.49853515625,21.55624771118164
10.00149917602539,-36.9249267578125,0.7989999651908875,7656.26904296875,21.55529022216797
12.00160026550293,-30.553434371948242,1.097000002861023,8816.87890625,21.55624771118164
14.001199722290039,-6.773014545440674,1.4259998798370361,9813.63671875,21.554012298583984
16.00119972229004,113.61277770996094,1.679999828338623,9274.3974609375,21.554012298583984
18.00160026550293,194.62403869628906,1.679999828338623,7533.392578125,21.559120178222656
20.00160026550293,207.34698486328125,1.679999828338623,6512.998046875,21.557523727416992
22.00160026550293,209.02027893066406,1.679999828338623,5736.052734375,21.559120178222656
24.001699447631836,209.34190368652344,1.679999828338623,3784.96826171875,21.560396194458008
26.001399993896484,209.5083465576172,1.679999828338623,519.1137084960938,21.557523727416992
28.00119972229004,209.62918090820312,1.679999828338623,0.0,21.559120178222656
30.00149917602539,209.71624755859375,1.6850000619888306,116.50371551513672,21.560396194458008
32.00170135498047,209.85128784179688,1.691999912261963,296.0649108886719,21.559120178222656
34.0015983581543,210.16641235351562,1.6949998140335083,178.61216735839844,21.56262969970703
36.001800537109375,210.36837768554688,1.6989998817443848,137.96836853027344,21.560396194458008
38.0015983581543,210.61715698242188,1.7059999704360962,145.03684997558594,21.560077667236328
40.001399993896484,211.0146026611328,1.718000054359436,209.69613647460938,21.56262969970703
42.00149917602539,211.79940795898438,1.7359998226165771,666.1477661132812,21.560396194458008
44.0015983581543,212.9194793701172,1.7599999904632568,755.6072998046875,21.56550407409668
46.0015983581543,214.11180114746094,1.7839999198913574,711.280029296875,21.564226150512695
48.001800537109375,215.17086791992188,1.8059998750686646,669.8114624023438,21.562950134277344
50.0015983581543,216.12744140625,1.8269999027252197,640.6896362304688,21.56646156311035
52.00139617919922,217.0496826171875,1.8479998111724854,629.1124267578125,21.565183639526367
54.0015983581543,217.87181091308594,1.8669999837875366,598.957763671875,21.565183639526367
56.00149917602539,218.67262268066406,1.8869999647140503,577.3248291015625,21.56646156311035
58.0015983581543,219.3928680419922,1.904999852180481,570.9583740234375,21.56550407409668
60.001800537109375,220.08705139160156,1.9240000247955322,549.4010620117188,21.56550407409668
62.0015983581543,220.77354431152344,1.9409998655319214,539.5139770507812,21.568056106567383
64.00129699707031,221.39903259277344,1.9589999914169312,529.4142456054688,21.56646156311035
66.00150299072266,221.99607849121094,1.9759999513626099,519.3715209960938,21.56646156311035
68.00159454345703,222.6103057861328,1.9930000305175781,510.5296936035156,21.567737579345703
70.00139617919922,223.15463256835938,2.009999990463257,500.66339111328125,21.56646156311035
72.00180053710938,223.67823791503906,2.0260000228881836,499.27532958984375,21.568056106567383
74.00180053710938,224.2095489501953,2.0429999828338623,491.0555725097656,21.567737579345703
76.00129699707031,224.76809692382812,2.059000015258789,486.7584228515625,21.56550407409668
78.00159454345703,225.20225524902344,2.075000047683716,481.8294677734375,21.567737579345703
80.00159454345703,225.71815490722656,2.0909998416900635,478.0476989746094,21.567737579345703
82.00129699707031,226.18490600585938,2.1069998741149902,476.69195556640625,21.567737579345703
84.00170135498047,226.64276123046875,2.122999906539917,472.5176086425781,21.567737579345703
86.00180053710938,227.1136474609375,2.138000011444092,474.3716735839844,21.569013595581055
88.00139617919922,227.52825927734375,2.1539998054504395,469.5440979003906,21.567737579345703
90.00150299072266,227.9618377685547,2.169999837875366,469.3559265136719,21.567737579345703
92.00159454345703,228.37940979003906,2.18500018119812,466.32342529296875,21.568056106567383
94.00150299072266,228.81298828125,2.197000026702881,454.00482177734375,21.569013595581055
96.00189971923828,228.97349548339844,2.197000026702881,397.6401062011719,21.56646156311035
98.00150299072266,229.01377868652344,2.197000026702881,353.7250671386719,21.562950134277344
100.00129699707031,229.0374755859375,2.197000026702881,318.5451965332031,21.568056106567383
102.00159454345703,229.07122802734375,2.197000026702881,201.30886840820312,21.567737579345703
104.00129699707031,229.089599609375,2.197000026702881,34.740379333496094,21.568056106567383
105.60160064697266,229.10440063476562,2.197000026702881,8.417641639709473,21.569334030151367
