2024-08-20 13:44:30 UTC-7
-30acaaaa:19170784458:-7dda

pH Measure.1
Time [s],Measured value,dU/dt [mV/min],Temperature [°C]
0.0,4.591165065765381,0.0,21.58050537109375
2.0,4.816054344177246,686.104248046875,21.57061004638672
4.0,5.169778823852539,490.0877990722656,21.575397491455078
6.0,5.4301934242248535,394.03558349609375,21.58050537109375
8.0,5.648882865905762,356.3882751464844,21.588165283203125
10.0,5.84510612487793,324.5668640136719,21.597423553466797
12.0,6.026695251464844,297.1682434082031,21.60253143310547
14.0,6.194226264953613,273.88348388671875,21.610191345214844
16.0,6.347075939178467,249.51515197753906,21.6165771484375
18.0,6.485487937927246,227.7309112548828,21.619131088256836
20.0,6.613774299621582,213.67282104492188,21.62519645690918
22.0,6.730007171630859,187.1890106201172,21.628068923950195
24.0,6.833914756774902,169.26309204101562,21.629026412963867
26.0,6.928266525268555,154.68551635742188,21.633176803588867
28.0,7.013019561767578,135.00851440429688,21.63828468322754
30.0,7.088890075683594,123.19042205810547,21.639562606811523
32.0,7.157561779022217,109.03675079345703,21.64307403564453
34.0,7.219139575958252,87.32717895507812,21.64339256286621
36.0,7.270364761352539,87.65122985839844,21.644670486450195
38.0,7.318971633911133,80.17587280273438,21.649778366088867
40.0,7.363356113433838,73.5721206665039,21.64339256286621
42.0,7.402782440185547,65.90156555175781,21.649778366088867
44.0,7.438318252563477,55.15242385864258,21.649459838867188
46.0,7.469334602355957,49.67292022705078,21.611469268798828
48.0,7.497091293334961,45.986289978027344,21.653289794921875
50.0,7.522111892700195,39.87821578979492,21.653289794921875
52.0,7.544442653656006,35.63344192504883,21.65584373474121
54.0,7.564256191253662,31.154909133911133,21.656164169311523
56.0,7.581605434417725,28.795576095581055,21.658397674560547
58.0,7.597565650939941,25.518321990966797,21.656164169311523
60.0,7.611881732940674,23.40964698791504,21.65871810913086
62.0,7.624805927276611,19.9681453704834,21.658397674560547
64.0,7.636194705963135,18.48786735534668,21.65999412536621
66.0,7.646306037902832,16.443668365478516,21.662229537963867
68.0,7.655284881591797,15.515144348144531,21.65967559814453
70.0,7.663505554199219,13.54619026184082,21.66254997253418
72.0,7.670708179473877,10.870512008666992,21.65999412536621
74.0,7.67718505859375,10.639752388000488,21.662229537963867
76.0,7.683176517486572,8.876263618469238,21.66254997253418
78.0,7.6883769035339355,9.3134765625,21.664783477783203
80.0,7.69337797164917,7.74513053894043,21.665103912353516
82.0,7.697528839111328,8.403751373291016,21.66254997253418
84.0,7.701632976531982,6.5496907234191895,21.662229537963867
86.0,7.705113410949707,5.6845598220825195,21.66254997253418
88.0,7.7082648277282715,5.110873222351074,21.66765785217285
90.0,7.711112976074219,4.787434101104736,21.66765785217285
92.0,7.713763236999512,3.6215438842773438,21.665103912353516
94.0,7.715949058532715,3.533212423324585,21.668615341186523
96.0,7.718108654022217,3.455764055252075,21.666379928588867
98.0,7.719925403594971,3.1546499729156494,21.666379928588867
100.0,7.7215728759765625,3.0807480812072754,21.668933868408203
102.0,7.723093509674072,2.344716787338257,21.668933868408203
104.0,7.724489212036133,2.515629768371582,21.666061401367188
106.0,7.725799560546875,2.0894484519958496,21.668615341186523
108.0,7.726955890655518,1.3894251585006714,21.671489715576172
110.0,7.727946758270264,1.6344213485717773,21.67116928100586
112.0,7.728667259216309,1.4787819385528564,21.668933868408203
114.0,7.729517936706543,1.5331135988235474,21.671489715576172
116.0,7.7300591468811035,1.5799530744552612,21.671489715576172
118.0,7.730923175811768,1.266219139099121,21.668933868408203
120.0,7.731627464294434,1.1317524909973145,21.672765731811523
122.0,7.7322611808776855,1.0881412029266357,21.668615341186523
124.0,7.732627868652344,0.9319685101509094,21.672765731811523
126.0,7.733205795288086,0.7839069962501526,21.666379928588867


SET U 1.1
Time [s],Measured value [mV],Volume [mL],dV/dt [µL/min],Temperature [°C]
0.0,-44.47880172729492,0.0,0.0,21.672447204589844
2.001500129699707,-44.47169494628906,0.047999996691942215,1731.380615234375,21.671489715576172
4.001299858093262,-42.59980773925781,0.15699999034404755,3217.719482421875,21.67116928100586
6.001299858093262,-38.630943298339844,0.3240000009536743,4846.33154296875,21.674043655395508
8.001299858093262,-34.27586364746094,0.5400000214576721,6331.56884765625,21.67500114440918
10.00100040435791,-28.875261306762695,0.7989999651908875,7653.099609375,21.67500114440918
12.001299858093262,-19.28843879699707,1.097000002861023,8815.9501953125,21.674043655395508
14.001500129699707,11.272600173950195,1.4259998798370361,9821.94140625,21.672765731811523
16.001399993896484,119.17182922363281,1.6489999294281006,8821.5322265625,21.67627716064453
18.00119972229004,192.6865692138672,1.649999976158142,7052.74072265625,21.677555084228516
20.0010986328125,205.4142608642578,1.649999976158142,6120.046875,21.6788330078125
22.001399993896484,207.05142211914062,1.649999976158142,5405.228515625,21.677873611450195
24.000999450683594,207.3706817626953,1.649999976158142,3626.14453125,21.6788330078125
26.001298904418945,207.5442352294922,1.649999976158142,468.2822570800781,21.681386947631836
28.001598358154297,207.66209411621094,1.649999976158142,0.0,21.681705474853516
30.001399993896484,207.74266052246094,1.6539998054504395,79.77755737304688,21.681705474853516
32.001399993896484,207.87355041503906,1.6600000858306885,213.90121459960938,21.685218811035156
34.0010986328125,208.102783203125,1.6629998683929443,145.3809356689453,21.685218811035156
36.001399993896484,208.3610382080078,1.6679999828338623,132.24075317382812,21.6829833984375
38.001399993896484,208.7028045654297,1.6759999990463257,171.36793518066406,21.681705474853516
40.00130081176758,209.3188018798828,1.688999891281128,286.28955078125,21.683940887451172
42.0015983581543,210.275390625,1.7100000381469727,692.4738159179688,21.685218811035156
44.00130081176758,211.71826171875,1.7359998226165771,812.66796875,21.683940887451172
46.0010986328125,212.9834442138672,1.7609999179840088,742.8877563476562,21.686494827270508
48.00130081176758,214.13490295410156,1.7839999198913574,701.4437255859375,21.686494827270508
50.00149917602539,215.2632598876953,1.8059998750686646,670.329345703125,21.68681526184082
52.00130081176758,216.15113830566406,1.8269999027252197,632.2390747070312,21.689369201660156
54.0015983581543,217.14622497558594,1.8479998111724854,627.0403442382812,21.686494827270508
56.001399993896484,217.98789978027344,1.8680000305175781,594.8721313476562,21.689369201660156
58.0010986328125,218.712890625,1.8869999647140503,571.5166625976562,21.686494827270508
60.001399993896484,219.5042266845703,1.904999852180481,567.7578735351562,21.688091278076172
62.001399993896484,220.2173614501953,1.9240000247955322,549.5733032226562,21.688091278076172
64.00140380859375,220.87542724609375,1.9409998655319214,536.5159912109375,21.690326690673828
66.00150299072266,221.54592895507812,1.9589999914169312,524.5445556640625,21.689369201660156
68.00150299072266,222.16903686523438,1.9759999513626099,517.8699951171875,21.689369201660156
70.00110626220703,222.7826690673828,1.9930000305175781,505.208984375,21.690326690673828
72.00130462646484,223.34181213378906,2.008999824523926,504.4158630371094,21.69064712524414
74.00140380859375,223.8849639892578,2.0260000228881836,491.7519836425781,21.690326690673828
76.00130462646484,224.45298767089844,2.0420000553131104,489.73175048828125,21.689369201660156
78.00160217285156,224.9226837158203,2.057999849319458,487.64013671875,21.689369201660156
80.00130462646484,225.40304565429688,2.0739998817443848,482.81951904296875,21.693201065063477
82.00110626220703,225.9432373046875,2.0899999141693115,475.71112060546875,21.690326690673828
84.00140380859375,226.408203125,2.1059999465942383,474.6558837890625,21.688091278076172
86.00140380859375,226.8867950439453,2.121999740600586,471.8651123046875,21.692880630493164
88.00130462646484,227.3245086669922,2.1369998455047607,470.6820983886719,21.690326690673828
90.00160217285156,227.73439025878906,2.1529998779296875,467.4237060546875,21.691604614257812
92.00150299072266,228.1851348876953,2.168999671936035,468.8966369628906,21.69064712524414
94.00110626220703,228.65602111816406,2.18399977684021,470.29583740234375,21.69064712524414
96.00140380859375,228.9290771484375,2.186999797821045,421.16644287109375,21.691604614257812
98.00110626220703,229.0025177001953,2.186999797821045,372.2210693359375,21.692880630493164
100.00110626220703,229.09669494628906,2.186999797821045,333.4674987792969,21.693201065063477
102.00160217285156,229.0546417236328,2.186999797821045,266.4293212890625,21.691604614257812
104.00130462646484,229.08485412597656,2.186999797821045,95.45223999023438,21.693201065063477
106.0009994506836,229.089599609375,2.186999797821045,8.815130233764648,21.693201065063477
106.4010009765625,229.0949249267578,2.186999797821045,8.456408500671387,21.693201065063477
