2024-08-20 14:16:15 UTC-7
-30acaaaa:19170784458:-7d92

pH Measure.1
Time [s],Measured value,dU/dt [mV/min],Temperature [°C]
0.0,4.526220321655273,0.0,21.117324829101562
2.0,4.783622741699219,804.6472778320312,21.125295639038086
4.0,5.206960678100586,625.7443237304688,21.159408569335938
6.0,5.552944183349609,549.3657836914062,21.200220108032227
8.0,5.863905906677246,508.10369873046875,21.243906021118164
10.0,6.14748477935791,458.3807373046875,21.279306411743164
12.0,6.401510238647461,390.5440979003906,21.312795639038086
14.0,6.619803428649902,343.6252136230469,21.344694137573242
16.0,6.80985689163208,301.98980712890625,21.371490478515625
18.0,6.977062225341797,254.0791778564453,21.392864227294922
20.0,7.117784023284912,223.63626098632812,21.41232681274414
22.0,7.240109920501709,190.3614959716797,21.431150436401367
24.0,7.3447747230529785,164.059814453125,21.4451904296875
26.0,7.435158729553223,143.2458038330078,21.459548950195312
28.0,7.514291286468506,125.03756713867188,21.471994400024414
30.0,7.582776069641113,103.97856140136719,21.483800888061523
32.0,7.640700340270996,91.31782531738281,21.49273681640625
34.0,7.690492630004883,77.68445587158203,21.501352310180664
36.0,7.733120441436768,67.78971099853516,21.502628326416016
38.0,7.770242691040039,58.75584411621094,21.51539421081543
40.0,7.802149772644043,50.21007537841797,21.522096633911133
42.0,7.8293867111206055,42.440155029296875,21.52592658996582
44.0,7.852147102355957,37.636295318603516,21.53071403503418
46.0,7.872817039489746,33.015316009521484,21.537416458129883
48.0,7.89088249206543,28.054931640625,21.537416458129883
50.0,7.906650543212891,25.198448181152344,21.543798446655273
52.0,7.920267105102539,21.68225860595703,21.548906326293945
54.0,7.932129383087158,18.48310661315918,21.550182342529297
56.0,7.942436695098877,16.377063751220703,21.55529022216797
58.0,7.951245307922363,14.088216781616211,21.55656623840332
60.0,7.958932399749756,12.714640617370605,21.560396194458008
62.0,7.965715408325195,11.0780668258667,21.56262969970703
64.0,7.971724510192871,8.628349304199219,21.564226150512695
66.0,7.976871013641357,8.000659942626953,21.564226150512695
68.0,7.981369972229004,7.285741329193115,21.56550407409668
70.0,7.985308647155762,7.044920444488525,21.569334030151367
72.0,7.988913059234619,5.66105842590332,21.569334030151367
74.0,7.992000579833984,5.411072731018066,21.574121475219727
76.0,7.994797229766846,4.077218532562256,21.57156753540039
78.0,7.997217178344727,4.018250465393066,21.57156753540039
80.0,7.999330997467041,3.2800161838531494,21.574440002441406
82.0,8.001158714294434,3.8878815174102783,21.574440002441406
84.0,8.003005027770996,2.4080159664154053,21.577951431274414
86.0,8.004432678222656,2.5281364917755127,21.57571792602539
88.0,8.005731582641602,1.7999639511108398,21.58082389831543
90.0,8.006895065307617,2.0226025581359863,21.58082389831543
92.0,8.00762939453125,2.644348382949829,21.578271865844727
94.0,8.008442878723145,1.5799486637115479,21.5792293548584
96.0,8.009392738342285,1.1949114799499512,21.582101821899414
98.0,8.009864807128906,1.3874905109405518,21.584335327148438
100.0,8.010467529296875,1.376187801361084,21.584335327148438
102.0,8.011252403259277,0.9407077431678772,21.5817813873291
104.0,8.01169490814209,0.9745885133743286,21.58082389831543
106.0,8.012018203735352,0.812555730342865,21.58465576171875
108.0,8.01252555847168,0.7585654258728027,21.585613250732422


SET U 1.1
Time [s],Measured value [mV],Volume [mL],dV/dt [µL/min],Temperature [°C]
0.0,-60.664730072021484,0.0,0.0,21.586889266967773
2.0016000270843506,-60.66413879394531,0.04700000211596489,1725.427001953125,21.588165283203125
4.001399993896484,-58.90420150756836,0.15699999034404755,3227.7109375,21.58465576171875
6.001700401306152,-54.399810791015625,0.3240000009536743,4848.51123046875,21.586889266967773
8.001399993896484,-49.82374954223633,0.5400000214576721,6330.88818359375,21.591039657592773
10.001099586486816,-45.277313232421875,0.7989999651908875,7650.70068359375,21.588165283203125
12.001399993896484,-38.53616714477539,1.097000002861023,8820.0244140625,21.587207794189453
14.001200675964355,-3.427363872528076,1.4259998798370361,9814.06640625,21.591039657592773
16.00149917602539,145.8030242919922,1.6129999160766602,8895.1923828125,21.59071922302246
18.001699447631836,202.4757843017578,1.6129999160766602,7554.1064453125,21.591997146606445
20.001298904418945,210.85586547851562,1.6129999160766602,6564.42041015625,21.59359359741211
22.00119972229004,211.86753845214844,1.6129999160766602,5804.0166015625,21.595827102661133
24.001399993896484,212.09320068359375,1.6129999160766602,3157.79833984375,21.59455108642578
26.001197814941406,212.23477172851562,1.6129999160766602,187.95790100097656,21.59359359741211
28.00149917602539,212.339599609375,1.6129999160766602,0.0,21.596145629882812
30.001697540283203,212.40357971191406,1.6209999322891235,233.27549743652344,21.596145629882812
32.0015983581543,212.73052978515625,1.6279997825622559,323.69573974609375,21.597423553466797
34.001197814941406,212.99766540527344,1.6299998760223389,187.13983154296875,21.597105026245117
36.001399993896484,213.1427764892578,1.6339999437332153,139.9663848876953,21.597105026245117
38.00129699707031,213.3483123779297,1.6399998664855957,130.51422119140625,21.600934982299805
40.001399993896484,213.7564239501953,1.649999976158142,172.2544708251953,21.602210998535156
42.0016975402832,214.43106079101562,1.6670000553131104,474.1575622558594,21.599977493286133
44.0016975402832,215.4569549560547,1.688999891281128,703.7824096679688,21.59965705871582
46.00129699707031,216.47158813476562,1.7100000381469727,637.3088989257812,21.600934982299805
48.00149917602539,217.40684509277344,1.7299998998641968,597.4051513671875,21.599977493286133
50.00129699707031,218.26983642578125,1.75,599.9998779296875,21.60253143310547
52.001197814941406,219.1417236328125,1.7689999341964722,569.195556640625,21.60348892211914
54.0016975402832,219.90225219726562,1.7869998216629028,553.4298095703125,21.605085372924805
56.0016975402832,220.60592651367188,1.8049999475479126,539.9268188476562,21.60348892211914
58.001197814941406,221.32144165039062,1.8229999542236328,530.4815063476562,21.60348892211914
60.00149917602539,221.9540252685547,1.8399999141693115,518.7215576171875,21.60380744934082
62.00149917602539,222.59371948242188,1.8569999933242798,508.2174987792969,21.60380744934082
64.0010986328125,223.21861267089844,1.872999906539917,505.609619140625,21.606361389160156
66.00169372558594,223.80618286132812,1.8899999856948853,497.5624084472656,21.606042861938477
68.00169372558594,224.3469696044922,1.9059998989105225,488.7845764160156,21.606361389160156
70.00129699707031,224.90077209472656,1.9219999313354492,486.2601013183594,21.606042861938477
72.00149536132812,225.42733764648438,1.9379998445510864,480.42999267578125,21.605085372924805
74.00149536132812,225.93612670898438,1.9539999961853027,481.47271728515625,21.608596801757812
76.0010986328125,226.41946411132812,1.96999990940094,473.95751953125,21.609872817993164
78.00149536132812,226.90574645996094,1.9859997034072876,472.4429016113281,21.608596801757812
80.00169372558594,227.38433837890625,2.001999855041504,470.8492736816406,21.609872817993164
82.00129699707031,227.85818481445312,2.0169999599456787,468.9375,21.610191345214844
84.00149536132812,228.31307983398438,2.0329999923706055,469.2847595214844,21.608915328979492
86.0011978149414,228.77685546875,2.045999765396118,459.9408874511719,21.610191345214844
88.00129699707031,228.96224975585938,2.045999765396118,402.18634033203125,21.609872817993164
90.00160217285156,228.9971923828125,2.045999765396118,357.3180236816406,21.609872817993164
92.00139617919922,229.02325439453125,2.045999765396118,321.45611572265625,21.608596801757812
94.00149536132812,229.03509521484375,2.045999765396118,217.3991241455078,21.610191345214844
96.00149536132812,229.04991149902344,2.045999765396118,47.87261199951172,21.608915328979492
97.80149841308594,229.05938720703125,2.045999765396118,8.389790534973145,21.609872817993164
