2024-08-20 14:26:39 UTC-7
-30acaaaa:19170784458:-7d7a

pH Measure.1
Time [s],Measured value,dU/dt [mV/min],Temperature [°C]
0.0,4.550477981567383,0.0,20.95318603515625
2.0,4.804254055023193,752.89013671875,20.975811004638672
4.0,5.212038040161133,605.0983276367188,21.02329444885254
6.0,5.550143718719482,546.732177734375,21.085765838623047
8.0,5.85999870300293,507.8437194824219,21.14824867248535
10.0,6.138068199157715,447.2953796386719,21.209148406982422
12.0,6.390500068664551,400.4940185546875,21.258895874023438
14.0,6.6065287590026855,342.9957580566406,21.302589416503906
16.0,6.795851707458496,308.71795654296875,21.34309959411621
18.0,6.961593151092529,259.2123107910156,21.377552032470703
20.0,7.104064464569092,216.45770263671875,21.409772872924805
22.0,7.225995063781738,188.05642700195312,21.43880844116211
24.0,7.330809593200684,169.49407958984375,21.462100982666016
26.0,7.422585964202881,142.44395446777344,21.484758377075195
28.0,7.501187324523926,124.43705749511719,21.50518226623535
30.0,7.568968296051025,104.94046783447266,21.517948150634766
32.0,7.6270246505737305,89.28234100341797,21.533586502075195
34.0,7.675525188446045,77.6619644165039,21.549863815307617
36.0,7.717990398406982,63.54253387451172,21.560396194458008
38.0,7.753832817077637,55.563541412353516,21.571887969970703
40.0,7.784866809844971,49.34373092651367,21.582101821899414
42.0,7.810457229614258,42.57259750366211,21.588485717773438
44.0,7.833418846130371,36.73134994506836,21.59965705871582
46.0,7.853298187255859,31.67666244506836,21.59965705871582
48.0,7.870800495147705,26.891582489013672,21.608915328979492
50.0,7.885708332061768,23.10302734375,21.614980697631836
52.0,7.89858865737915,20.933685302734375,21.60348892211914
54.0,7.909903526306152,17.59757423400879,21.62519645690918
56.0,7.91934061050415,15.721226692199707,21.63030433654785
58.0,7.927644729614258,13.35207462310791,21.635412216186523
60.0,7.934944152832031,12.140281677246094,21.635412216186523
62.0,7.941232204437256,10.397363662719727,21.641796112060547
64.0,7.946719169616699,7.843728542327881,21.64339256286621
66.0,7.951609134674072,6.820489883422852,21.64339256286621
68.0,7.955809116363525,6.499850749969482,21.648181915283203
70.0,7.959468841552734,4.926987171173096,21.649778366088867
72.0,7.962538242340088,5.196609973907471,21.65073585510254
74.0,7.9653778076171875,3.889580011367798,21.653289794921875
76.0,7.96782922744751,3.3806114196777344,21.65584373474121
78.0,7.969880104064941,4.484640121459961,21.656164169311523
80.0,7.971791744232178,3.7967689037323,21.658397674560547
82.0,7.973604202270508,2.566814422607422,21.65967559814453
84.0,7.975052833557129,1.5822904109954834,21.65999412536621
86.0,7.976385593414307,2.3172764778137207,21.661272048950195
88.0,7.977514266967773,2.0278666019439697,21.66254997253418
90.0,7.978470802307129,1.4805265665054321,21.66350746154785
92.0,7.979226112365723,0.731124222278595,21.66350746154785
94.0,7.979768753051758,1.6106312274932861,21.666061401367188
96.0,7.980502605438232,1.0871697664260864,21.666379928588867
98.0,7.98095178604126,1.0538698434829712,21.666379928588867
100.0,7.981331825256348,1.0198338031768799,21.668615341186523
102.0,7.981753349304199,0.9733704328536987,21.664783477783203
104.0,7.982320785522461,0.8053354620933533,21.668933868408203
106.0,7.982838153839111,0.6183435916900635,21.669893264770508


SET U 1.1
Time [s],Measured value [mV],Volume [mL],dV/dt [µL/min],Temperature [°C]
0.0,-58.93974304199219,0.0,0.0,21.669893264770508
2.0013999938964844,-58.94388961791992,0.047999996691942215,1731.380615234375,21.669893264770508
4.001500129699707,-57.269256591796875,0.15699999034404755,3217.719482421875,21.672765731811523
6.001399993896484,-53.067569732666016,0.3240000009536743,4846.33154296875,21.672765731811523
8.001399993896484,-48.499210357666016,0.5400000214576721,6331.56884765625,21.67500114440918
10.000999450683594,-43.52094268798828,0.7989999651908875,7653.099609375,21.67531967163086
12.001298904418945,-36.654212951660156,1.097000002861023,8817.26953125,21.672765731811523
14.00149917602539,-15.585577011108398,1.4259998798370361,9819.544921875,21.672765731811523
16.001399993896484,109.7152099609375,1.6969999074935913,9581.9306640625,21.67531967163086
18.00149917602539,196.82745361328125,1.6969999074935913,7841.7216796875,21.6788330078125
20.0010986328125,209.4230499267578,1.6969999074935913,6779.564453125,21.6788330078125
22.0010986328125,210.75634765625,1.6969999074935913,5970.8193359375,21.677555084228516
24.001298904418945,211.03414916992188,1.6969999074935913,4035.68701171875,21.677873611450195
26.00119972229004,211.20176696777344,1.6969999074935913,720.0656127929688,21.677555084228516
28.001399993896484,211.30661010742188,1.6969999074935913,0.0,21.67627716064453
30.001399993896484,211.40553283691406,1.7020000219345093,155.25741577148438,21.67627716064453
32.001399993896484,211.6074981689453,1.7119998931884766,433.5403747558594,21.681386947631836
34.00120162963867,212.0055389404297,1.71399986743927,230.2123260498047,21.677873611450195
36.001399993896484,212.18560791015625,1.718000054359436,152.88726806640625,21.6829833984375
38.00130081176758,212.40061950683594,1.7229998111724854,134.39483642578125,21.683940887451172
40.00130081176758,212.78501892089844,1.7329999208450317,164.81622314453125,21.685218811035156
42.0015983581543,213.35067749023438,1.747999906539917,329.5269470214844,21.683940887451172
44.001399993896484,214.32977294921875,1.7709999084472656,706.6240234375,21.6829833984375
46.0010986328125,215.40304565429688,1.7919999361038208,673.292236328125,21.68425941467285
48.00130081176758,216.38096618652344,1.813999891281128,622.4104614257812,21.685218811035156
50.001399993896484,217.29075622558594,1.8339999914169312,618.2738647460938,21.685218811035156
52.00120162963867,218.16262817382812,1.8529999256134033,578.4750366210938,21.68425941467285
54.00149917602539,219.0203094482422,1.8719998598098755,573.99169921875,21.686494827270508
56.001399993896484,219.7174530029297,1.8909999132156372,559.5321044921875,21.686494827270508
58.0010986328125,220.42349243164062,1.909000039100647,543.5485229492188,21.685218811035156
60.001399993896484,221.13662719726562,1.9270000457763672,533.151611328125,21.687772750854492
62.001399993896484,221.7283477783203,1.9439998865127563,523.8292846679688,21.689369201660156
64.00140380859375,222.35916137695312,1.960999846458435,512.404052734375,21.687772750854492
66.00140380859375,222.93429565429688,1.9779999256134033,503.163818359375,21.68681526184082
68.00150299072266,223.51535034179688,1.9939998388290405,500.7801513671875,21.687772750854492
70.0010986328125,224.09523010253906,2.0109996795654297,494.2083740234375,21.687772750854492
72.00140380859375,224.60757446289062,2.0269999504089355,487.6842346191406,21.687772750854492
74.00140380859375,225.1619873046875,2.0429999828338623,483.926513671875,21.686494827270508
76.00120544433594,225.6210174560547,2.059000015258789,481.3182067871094,21.689369201660156
78.00160217285156,226.139892578125,2.075000047683716,473.6149597167969,21.689369201660156
80.00150299072266,226.61669921875,2.0909998416900635,473.8575744628906,21.69064712524414
82.00120544433594,227.0638885498047,2.1059999465942383,473.1991271972656,21.689369201660156
84.00140380859375,227.5330047607422,2.121999740600586,469.7325744628906,21.690326690673828
86.00140380859375,227.99085998535156,2.138000011444092,468.9699401855469,21.689369201660156
88.00130462646484,228.3936309814453,2.1529998779296875,468.6834716796875,21.690326690673828
90.00170135498047,228.84852600097656,2.1640000343322754,451.9467468261719,21.69064712524414
92.00140380859375,228.99246215820312,2.1640000343322754,396.0603942871094,21.69064712524414
94.00100708007812,229.04043579101562,2.1640000343322754,352.4745178222656,21.692880630493164
96.00130462646484,229.0516815185547,2.1640000343322754,317.5306701660156,21.690326690673828
98.00120544433594,229.06353759765625,2.1640000343322754,185.49432373046875,21.69064712524414
100.0010986328125,229.06649780273438,2.1640000343322754,23.43095588684082,21.653610229492188
101.40160369873047,229.08544921875,2.1640000343322754,8.480987548828125,21.692880630493164
