2024-08-20 11:46:34 UTC-7
-30acaaaa:19170784458:-7ed6

pH Measure.1
Time [s],Measured value,dU/dt [mV/min],Temperature [°C]
0.0,4.557530403137207,0.0,21.32427978515625
2.0,4.799123764038086,710.1678466796875,21.313753128051758
4.0,5.179409027099609,542.7115478515625,21.311519622802734
6.0,5.474615097045898,466.6944885253906,21.313753128051758
8.0,5.732420921325684,407.6929626464844,21.31502914428711
10.0,5.964273929595947,377.1787109375,21.31502914428711
12.0,6.174629211425781,332.8352966308594,21.312477111816406
14.0,6.359687805175781,298.20208740234375,21.311519622802734
16.0,6.526505470275879,271.7151794433594,21.310243606567383
18.0,6.676830768585205,239.77589416503906,21.309925079345703
20.0,6.808535575866699,208.19967651367188,21.30864906311035
22.0,6.923562049865723,174.9280548095703,21.30609703063965
24.0,7.024435997009277,160.6026153564453,21.303865432739258
26.0,7.1132612228393555,144.7006378173828,21.302270889282227
28.0,7.193379878997803,125.85720825195312,21.300994873046875
30.0,7.262021541595459,108.71153259277344,21.299718856811523
32.0,7.322315216064453,98.9230728149414,21.29716682434082
34.0,7.375840187072754,83.8082275390625,21.29716682434082
36.0,7.422252178192139,72.90826416015625,21.29716682434082
38.0,7.462995529174805,66.35755920410156,21.294614791870117
40.0,7.499081134796143,57.689208984375,21.291107177734375
42.0,7.530620574951172,48.5228271484375,21.292064666748047
44.0,7.557736396789551,43.54581069946289,21.292064666748047
46.0,7.5821356773376465,38.55675506591797,21.291107177734375
48.0,7.602902412414551,34.579742431640625,21.292064666748047
50.0,7.621647357940674,29.74948501586914,21.292064666748047
52.0,7.63767147064209,25.548431396484375,21.288555145263672
54.0,7.651994705200195,23.438430786132812,21.28696060180664
56.0,7.664552688598633,20.95897674560547,21.288555145263672
58.0,7.6760454177856445,18.063796997070312,21.290788650512695
60.0,7.685924530029297,15.561307907104492,21.288555145263672
62.0,7.6941633224487305,13.931585311889648,21.288236618041992
64.0,7.701756954193115,13.373074531555176,21.288555145263672
66.0,7.708703994750977,11.110509872436523,21.289831161499023
68.0,7.714870452880859,9.542052268981934,21.288555145263672
70.0,7.720246315002441,8.727152824401855,21.288555145263672
72.0,7.725040912628174,7.9611616134643555,21.288236618041992
74.0,7.729357719421387,7.24900484085083,21.290788650512695
76.0,7.733196258544922,6.562570571899414,21.288555145263672
78.0,7.7366557121276855,5.515942573547363,21.290788650512695
80.0,7.739625453948975,4.419996738433838,21.288555145263672
82.0,7.742201328277588,4.911288261413574,21.288555145263672
84.0,7.744609832763672,3.710696220397949,21.289831161499023
86.0,7.746647834777832,4.448855876922607,21.288236618041992
88.0,7.748688220977783,3.23915433883667,21.289831161499023
90.0,7.750319957733154,2.936976432800293,21.291107177734375
92.0,7.751901626586914,2.8258345127105713,21.288236618041992
94.0,7.753358840942383,2.05945086479187,21.289831161499023
96.0,7.754179954528809,2.422872304916382,21.288555145263672
98.0,7.755431175231934,1.8201581239700317,21.290788650512695
100.0,7.756409168243408,1.9121077060699463,21.292064666748047
102.0,7.757259845733643,1.6505144834518433,21.291107177734375
104.0,7.757988929748535,1.5400447845458984,21.289831161499023
106.0,7.758814334869385,1.3301092386245728,21.290788650512695
108.0,7.75954008102417,1.0370192527770996,21.290788650512695
110.0,7.759917259216309,1.2269647121429443,21.291107177734375
112.0,7.7606096267700195,0.9778651595115662,21.292064666748047
114.0,7.761096954345703,0.9719519019126892,21.2933406829834
116.0,7.761362075805664,0.9239057898521423,21.293659210205078


SET U 1.1
Time [s],Measured value [mV],Volume [mL],dV/dt [µL/min],Temperature [°C]
0.0,-46.09182357788086,0.0,0.0,21.294614791870117
2.0013999938964844,-46.07109069824219,0.047999996691942215,1731.380615234375,21.2933406829834
4.001500129699707,-44.177879333496094,0.15699999034404755,3217.719482421875,21.2933406829834
6.001299858093262,-40.0567741394043,0.3240000009536743,4846.33154296875,21.292064666748047
8.001199722290039,-35.218910217285156,0.5400000214576721,6331.56884765625,21.294614791870117
10.000900268554688,-29.73596954345703,0.7989999651908875,7647.53173828125,21.294614791870117
12.001199722290039,-20.778823852539062,1.097000002861023,8817.775390625,21.29493522644043
14.001399993896484,-1.283614158630371,1.4259998798370361,9818.6318359375,21.294614791870117
16.001300811767578,98.54373931884766,1.712999939918518,9807.2529296875,21.298442840576172
18.001399993896484,188.4195098876953,1.71399986743927,7707.75146484375,21.2974853515625
20.001100540161133,203.54017639160156,1.71399986743927,6642.875,21.302589416503906
22.001100540161133,205.87864685058594,1.71399986743927,5836.5205078125,21.302589416503906
24.001300811767578,206.2523956298828,1.71399986743927,4013.3486328125,21.302270889282227
26.00119972229004,206.42120361328125,1.71399986743927,658.6595458984375,21.303865432739258
28.001300811767578,206.52011108398438,1.71399986743927,0.0,21.303865432739258
30.001399993896484,206.59356689453125,1.7170000076293945,85.90092468261719,21.30641746520996
32.00130081176758,206.69366455078125,1.7239999771118164,202.1317138671875,21.30864906311035
34.0010986328125,206.97264099121094,1.7269999980926514,158.97711181640625,21.30609703063965
36.00130081176758,207.23800659179688,1.7319998741149902,142.48194885253906,21.308969497680664
38.001399993896484,207.6295166015625,1.7409999370574951,187.00567626953125,21.309925079345703
40.00120162963867,208.2994384765625,1.7549998760223389,319.91094970703125,21.311519622802734
42.00149917602539,209.40646362304688,1.777999758720398,711.076171875,21.310243606567383
44.00130081176758,210.92930603027344,1.8029998540878296,828.6888427734375,21.312477111816406
46.0010986328125,212.09083557128906,1.8229999542236328,589.40771484375,21.312795639038086
48.00130081176758,213.25592041015625,1.8469998836517334,731.2247314453125,21.31502914428711
50.001399993896484,214.412109375,1.8699997663497925,689.5125122070312,21.312795639038086
52.00120162963867,215.46939086914062,1.8919999599456787,660.4712524414062,21.312795639038086
54.001399993896484,216.43130493164062,1.9129998683929443,630.47119140625,21.31502914428711
56.00130081176758,217.40684509277344,1.934000015258789,625.5719604492188,21.31630516052246
58.0010986328125,218.15138244628906,1.9529998302459717,579.8182373046875,21.31534767150879
60.00120162963867,218.96343994140625,1.9719998836517334,583.464599609375,21.31534767150879
62.00130081176758,219.65821838378906,1.9910000562667847,554.5065307617188,21.31630516052246
64.00129699707031,220.4418487548828,2.008999824523926,546.8466796875,21.31534767150879
66.00139617919922,221.0560760498047,2.0260000228881836,533.26025390625,21.31502914428711
68.00129699707031,221.6886749267578,2.043999671936035,523.4370727539062,21.317899703979492
70.0009994506836,222.3135528564453,2.060999870300293,512.082275390625,21.31662368774414
72.00129699707031,222.90171813964844,2.078000068664551,509.5357971191406,21.31662368774414
74.00129699707031,223.48159790039062,2.0939998626708984,498.5843811035156,21.319175720214844
76.0011978149414,224.04074096679688,2.110999822616577,491.3592834472656,21.31662368774414
78.00149536132812,224.55960083007812,2.127000093460083,488.6821594238281,21.319175720214844
80.00129699707031,225.06246948242188,2.1430001258850098,483.090087890625,21.318857192993164
82.00089263916016,225.57363891601562,2.1589999198913574,478.4740905761719,21.317899703979492
84.00129699707031,226.05992126464844,2.174999952316284,479.85198974609375,21.320133209228516
86.00129699707031,226.54739379882812,2.190999984741211,474.4375,21.318857192993164
88.0011978149414,226.98097229003906,2.2060000896453857,472.4607238769531,21.321407318115234
90.00149536132812,227.43348693847656,2.2219998836517334,469.6966857910156,21.321407318115234
92.00139617919922,227.8723907470703,2.23799991607666,468.00653076171875,21.321727752685547
94.0009994506836,228.3012237548828,2.253000020980835,469.9269714355469,21.322683334350586
96.0009994506836,228.74900817871094,2.2669999599456787,462.2195129394531,21.321407318115234
98.0009994506836,228.94033813476562,2.2669999599456787,403.92755126953125,21.321407318115234
100.00129699707031,228.99778747558594,2.2669999599456787,358.6917724609375,21.3230037689209
102.00129699707031,228.9971923828125,2.2669999599456787,322.56756591796875,21.321407318115234
104.00128936767578,228.99778747558594,2.2669999599456787,218.8092498779297,21.322683334350586
106.0011978149414,229.00430297851562,2.2669999599456787,48.3775749206543,21.322683334350586
107.80109405517578,228.9995574951172,2.2669999599456787,8.480987548828125,21.3230037689209
