2024-08-20 11:51:40 UTC-7
-30acaaaa:19170784458:-7eca

pH Measure.1
Time [s],Measured value,dU/dt [mV/min],Temperature [°C]
0.0,4.504751205444336,0.0,21.039867401123047
2.0,4.756061553955078,745.1064453125,21.043373107910156
4.0,5.146997451782227,547.23486328125,21.061222076416016
6.0,5.4455718994140625,472.048583984375,21.090547561645508
8.0,5.704797744750977,411.01104736328125,21.117324829101562
10.0,5.933178901672363,376.4313659667969,21.14442253112793
12.0,6.140851020812988,333.6842956542969,21.16992950439453
14.0,6.328171730041504,300.3643798828125,21.19001579284668
16.0,6.495440483093262,270.5045166015625,21.210742950439453
18.0,6.644508361816406,230.13821411132812,21.229557037353516
20.0,6.774470806121826,214.82171630859375,21.244863510131836
22.0,6.891785621643066,183.57431030273438,21.258895874023438
24.0,6.993757247924805,165.71051025390625,21.271970748901367
26.0,7.085857391357422,148.10304260253906,21.28472900390625
28.0,7.16810941696167,125.40725708007812,21.293659210205078
30.0,7.237399101257324,97.65219116210938,21.300994873046875
32.0,7.299069404602051,100.58009338378906,21.309925079345703
34.0,7.355301856994629,88.25609588623047,21.31662368774414
36.0,7.404227256774902,78.21507263183594,21.321727752685547
38.0,7.446332931518555,65.16990661621094,21.328105926513672
40.0,7.482611179351807,60.50481033325195,21.33448600769043
42.0,7.516354084014893,53.497802734375,21.340547561645508
44.0,7.546260833740234,46.594303131103516,21.34309959411621
46.0,7.571836471557617,41.928165435791016,21.33416748046875
48.0,7.59456205368042,36.502140045166016,21.34979820251465
50.0,7.614470481872559,31.248876571655273,21.35330581665039
52.0,7.6319074630737305,27.88037872314453,21.356178283691406
54.0,7.646953582763672,25.07000160217285,21.35873031616211
56.0,7.660369873046875,22.367481231689453,21.363513946533203
58.0,7.672488689422607,18.48516082763672,21.363513946533203
60.0,7.682754993438721,17.403512954711914,21.364789962768555
62.0,7.691855430603027,14.875079154968262,21.36638641357422
64.0,7.700112819671631,13.779581069946289,21.366065979003906
66.0,7.707521438598633,10.791998863220215,21.36989402770996
68.0,7.71390438079834,10.221952438354492,21.371171951293945
70.0,7.719455718994141,8.89974594116211,21.374042510986328
72.0,7.7243332862854,8.633819580078125,21.372766494750977
74.0,7.728731155395508,7.200602054595947,21.375
76.0,7.732713222503662,6.269819736480713,21.37627601623535
78.0,7.736241817474365,3.6742024421691895,21.378828048706055
80.0,7.739466667175293,5.130884170532227,21.380422592163086
82.0,7.742368221282959,4.069397449493408,21.380422592163086
84.0,7.7448248863220215,1.7941209077835083,21.378828048706055
86.0,7.746581554412842,3.994922399520874,21.379146575927734
88.0,7.748649597167969,3.3769545555114746,21.381380081176758
90.0,7.750421047210693,2.817967176437378,21.38393211364746
92.0,7.7520318031311035,2.7761218547821045,21.385208129882812
94.0,7.7535271644592285,2.3435885906219482,21.38393211364746
96.0,7.754913330078125,2.2380728721618652,21.385208129882812
98.0,7.756016731262207,2.6408498287200928,21.385208129882812
100.0,7.757078647613525,2.2142858505249023,21.385526657104492
102.0,7.75810432434082,1.3093290328979492,21.387760162353516
104.0,7.758983135223389,1.2614985704421997,21.387760162353516
106.0,7.759463310241699,1.4790769815444946,21.387760162353516
108.0,7.760260581970215,1.1015102863311768,21.387760162353516
110.0,7.760654449462891,1.1344712972640991,21.389354705810547
112.0,7.761237144470215,1.0646755695343018,21.389354705810547
114.0,7.761629581451416,0.9439697265625,21.387760162353516
116.0,7.762027740478516,0.78093022108078,21.39158821105957


SET U 1.1
Time [s],Measured value [mV],Volume [mL],dV/dt [µL/min],Temperature [°C]
0.0,-46.12025451660156,0.0,0.0,21.394140243530273
2.0013999938964844,-46.09004592895508,0.047999996691942215,1739.6614990234375,21.3931827545166
4.001399993896484,-44.27739715576172,0.15699999034404755,3222.121826171875,21.394140243530273
6.001499652862549,-40.04966354370117,0.3240000009536743,4847.88330078125,21.38393211364746
8.00149917602539,-35.1353874206543,0.5400000214576721,6331.56884765625,21.394460678100586
10.001399993896484,-28.292375564575195,0.7989999651908875,7647.53173828125,21.394140243530273
12.001699447631836,-19.606536865234375,1.097000002861023,8817.775390625,21.395736694335938
14.001199722290039,1.1829694509506226,1.4259998798370361,9813.39453125,21.395736694335938
16.001298904418945,81.13426971435547,1.74399995803833,10053.234375,21.39701271057129
18.001298904418945,178.12498474121094,1.7489999532699585,7400.46337890625,21.400840759277344
20.001399993896484,202.4290008544922,1.7489999532699585,6375.04736328125,21.403074264526367
22.001399993896484,205.47824096679688,1.7489999532699585,5599.212890625,21.403392791748047
24.001699447631836,205.95623779296875,1.7489999532699585,4479.5419921875,21.403392791748047
26.00119972229004,206.14874267578125,1.7489999532699585,1120.6510009765625,21.40594482421875
28.001298904418945,206.27134704589844,1.7489999532699585,0.0,21.4072208404541
30.00149917602539,206.37559509277344,1.7510000467300415,50.8713493347168,21.408496856689453
32.001502990722656,206.45437622070312,1.7569998502731323,171.0047149658203,21.409454345703125
34.001502990722656,206.62673950195312,1.7590000629425049,126.88472747802734,21.410730361938477
36.00160217285156,206.8358154296875,1.7629998922348022,108.8361587524414,21.408496856689453
38.00160217285156,207.13197326660156,1.7689999341964722,129.33399963378906,21.41232681274414
40.00120162963867,207.5560760498047,1.7789998054504395,213.12313842773438,21.412006378173828
42.001502990722656,208.39479064941406,1.7949999570846558,464.34246826171875,21.412006378173828
44.001399993896484,209.60015869140625,1.8209998607635498,791.4486694335938,21.413602828979492
46.001399993896484,211.15675354003906,1.8479998111724854,832.744384765625,21.415836334228516
48.00170135498047,212.5054473876953,1.872999906539917,759.0947265625,21.415836334228516
50.001502990722656,213.63795471191406,1.8930000066757202,633.1106567382812,21.416154861450195
52.00130081176758,214.7064971923828,1.9149999618530273,629.158447265625,21.415836334228516
54.001399993896484,215.6322784423828,1.936999797821045,666.8123779296875,21.414878845214844
56.001502990722656,216.57760620117188,1.9580000638961792,626.5233764648438,21.41838836669922
58.001399993896484,217.44534301757812,1.9779999256134033,614.17724609375,21.41838836669922
60.00170135498047,218.28109741210938,1.9969998598098755,569.920654296875,21.417430877685547
62.001502990722656,219.0564422607422,2.0160000324249268,567.7455444335938,21.416154861450195
64.0011978149414,219.779052734375,2.0349998474121094,557.0637817382812,21.420940399169922
66.00150299072266,220.4803466796875,2.05299973487854,545.5341796875,21.420940399169922
68.00150299072266,221.0963592529297,2.069999933242798,530.0686645507812,21.4212589263916
70.0011978149414,221.83319091796875,2.0879998207092285,523.9177856445312,21.422216415405273
72.00170135498047,222.37278747558594,2.1050000190734863,514.6807861328125,21.420940399169922
74.00170135498047,222.9508819580078,2.121999740600586,505.92242431640625,21.422216415405273
76.0010986328125,223.526611328125,2.138000011444092,499.301513671875,21.422216415405273
78.00139617919922,224.03659057617188,2.1549999713897705,494.7572021484375,21.423812866210938
80.00150299072266,224.5222930908203,2.1710000038146973,487.9486083984375,21.4212589263916
82.0011978149414,225.0482635498047,2.186999797821045,485.06292724609375,21.423812866210938
84.00170135498047,225.53158569335938,2.2029998302459717,481.5780029296875,21.427640914916992
86.00170135498047,226.03564453125,2.2189998626708984,473.1433410644531,21.423812866210938
88.00139617919922,226.49349975585938,2.2350001335144043,473.7281188964844,21.42508888244629
90.00130462646484,226.97386169433594,2.25,473.60211181640625,21.42508888244629
92.00139617919922,227.40980529785156,2.2660000324249268,470.7994689941406,21.42508888244629
94.00130462646484,227.84396362304688,2.2819998264312744,469.59490966796875,21.427640914916992
96.00160217285156,228.23251342773438,2.296999931335449,470.6912841796875,21.42604637145996
98.00170135498047,228.64239501953125,2.312999963760376,468.8993835449219,21.42604637145996
100.00139617919922,228.95277404785156,2.31499981880188,417.1984558105469,21.42604637145996
102.00150299072266,229.01437377929688,2.31499981880188,369.11834716796875,21.42604637145996
104.0010986328125,229.0428009033203,2.31499981880188,330.97509765625,21.42604637145996
106.00130462646484,229.04931640625,2.31499981880188,264.22186279296875,21.427640914916992
108.00159454345703,229.0611572265625,2.31499981880188,94.70899963378906,21.42604637145996
110.00150299072266,229.07774353027344,2.31499981880188,8.758944511413574,21.428598403930664
110.40169525146484,229.07537841796875,2.31499981880188,8.404687881469727,21.428598403930664
