2024-08-20 12:07:37 UTC-7
-30acaaaa:19170784458:-7ea6

pH Measure.1
Time [s],Measured value,dU/dt [mV/min],Temperature [°C]
0.0,4.452022075653076,0.0,21.002897262573242
2.0,4.69927978515625,812.9082641601562,21.01405143737793
4.0,5.117292404174805,588.7291870117188,21.044649124145508
6.0,5.432137489318848,486.4989318847656,21.081623077392578
8.0,5.701044082641602,426.01568603515625,21.117324829101562
10.0,5.940441131591797,391.6557312011719,21.150798797607422
12.0,6.157487392425537,347.2855224609375,21.181407928466797
14.0,6.351612091064453,312.83209228515625,21.20787239074707
16.0,6.5266337394714355,283.2222900390625,21.232107162475586
18.0,6.682897090911865,247.7356719970703,21.252517700195312
20.0,6.819697380065918,217.6119384765625,21.271652221679688
22.0,6.941251277923584,188.8206024169922,21.28472900390625
24.0,7.0462775230407715,171.93035888671875,21.299718856811523
26.0,7.141219615936279,148.18893432617188,21.309925079345703
28.0,7.224114894866943,133.96534729003906,21.321727752685547
30.0,7.298094749450684,112.19499206542969,21.331615447998047
32.0,7.36038875579834,101.10682678222656,21.34182357788086
34.0,7.415497779846191,89.6219253540039,21.34979820251465
36.0,7.4647321701049805,78.13999938964844,21.355857849121094
38.0,7.506913185119629,66.63716888427734,21.36223793029785
40.0,7.5435791015625,60.20044708251953,21.366065979003906
42.0,7.577227592468262,52.079463958740234,21.371171951293945
44.0,7.60574197769165,45.25574493408203,21.377870559692383
46.0,7.630828380584717,39.473724365234375,21.381698608398438
48.0,7.652585983276367,35.74746322631836,21.38425064086914
50.0,7.672475814819336,30.624120712280273,21.381698608398438
52.0,7.689333438873291,27.632707595825195,21.3906307220459
54.0,7.704790115356445,23.897205352783203,21.39158821105957
56.0,7.7183661460876465,21.652074813842773,21.396692276000977
58.0,7.730241298675537,19.352066040039062,21.399564743041992
60.0,7.74052095413208,17.113283157348633,21.403074264526367
62.0,7.750096797943115,14.146289825439453,21.402116775512695
64.0,7.758230209350586,13.034943580627441,21.40562629699707
66.0,7.765142917633057,10.969202995300293,21.403392791748047
68.0,7.771395683288574,9.626407623291016,21.4072208404541
70.0,7.776906490325928,8.863327026367188,21.409454345703125
72.0,7.7816877365112305,8.36819076538086,21.413284301757812
74.0,7.785950660705566,7.127297401428223,21.41232681274414
76.0,7.789914608001709,6.1074748039245605,21.41232681274414
78.0,7.793520927429199,5.482604026794434,21.416154861450195
80.0,7.79660701751709,5.1881914138793945,21.415836334228516
82.0,7.799412250518799,4.701174736022949,21.417430877685547
84.0,7.801820278167725,4.1810622215271,21.41838836669922
86.0,7.8040876388549805,3.2873709201812744,21.4187068939209
88.0,7.806100845336914,2.236356019973755,21.41838836669922
90.0,7.807830810546875,2.1646382808685303,21.420940399169922
92.0,7.809464454650879,2.5882248878479004,21.4212589263916
94.0,7.810793399810791,2.7457540035247803,21.420940399169922
96.0,7.81215763092041,2.2725510597229004,21.422536849975586
98.0,7.813186168670654,1.4634305238723755,21.423812866210938
100.0,7.8141398429870605,1.4891932010650635,21.422536849975586
102.0,7.815062999725342,1.9537980556488037,21.42477035522461
104.0,7.816053867340088,1.1020106077194214,21.42477035522461
106.0,7.816530227661133,1.295152187347412,21.42604637145996
108.0,7.817251205444336,1.4502861499786377,21.427640914916992
110.0,7.818014621734619,0.8561638593673706,21.428598403930664
112.0,7.818391799926758,0.926157534122467,21.428916931152344
114.0,7.81884765625,0.8714689016342163,21.430192947387695


SET U 1.1
Time [s],Measured value [mV],Volume [mL],dV/dt [µL/min],Temperature [°C]
0.0,-49.430416107177734,0.0,0.0,21.431468963623047
2.0013999938964844,-49.404945373535156,0.04700000211596489,1725.427001953125,21.431468963623047
4.001399993896484,-47.61065673828125,0.15699999034404755,3220.420166015625,21.430192947387695
6.001499652862549,-43.33197784423828,0.3240000009536743,4850.3369140625,21.43242645263672
8.001399993896484,-38.83649444580078,0.5400000214576721,6330.646484375,21.43370246887207
10.001199722290039,-33.45306396484375,0.7989999651908875,7650.70068359375,21.434980392456055
12.001399993896484,-24.105541229248047,1.097000002861023,8820.0244140625,21.434980392456055
14.001199722290039,10.814708709716797,1.4259998798370361,9814.06640625,21.436574935913086
16.00160026550293,132.75460815429688,1.6299998760223389,8703.54296875,21.437532424926758
18.001300811767578,196.853515625,1.6299998760223389,7371.2646484375,21.436574935913086
20.00119972229004,206.52011108398438,1.6299998760223389,6392.71142578125,21.44040298461914
22.001501083374023,207.64077758789062,1.6299998760223389,5643.521484375,21.442956924438477
24.001300811767578,207.90908813476562,1.6299998760223389,3260.88037109375,21.442956924438477
26.00119972229004,208.06488037109375,1.6299998760223389,216.48814392089844,21.44391441345215
28.00160026550293,208.16970825195312,1.6299998760223389,0.0,21.44646644592285
30.001699447631836,208.24493408203125,1.6339999437332153,101.09188842773438,21.442956924438477
32.00139617919922,208.3776092529297,1.6399998664855957,178.50694274902344,21.44678497314453
34.0010986328125,208.5890655517578,1.6429998874664307,141.76611328125,21.449338912963867
36.00149917602539,208.82066345214844,1.6480000019073486,132.88946533203125,21.45061492919922
38.00149917602539,209.1837615966797,1.6559998989105225,174.57205200195312,21.450294494628906
40.00139617919922,209.76185607910156,1.6699999570846558,308.2763977050781,21.431468963623047
42.0016975402832,210.84400939941406,1.691999912261963,702.4212036132812,21.45061492919922
44.0016975402832,212.16368103027344,1.718000054359436,793.031982421875,21.45189094543457
46.0010986328125,213.409912109375,1.7419999837875366,721.3773193359375,21.45189094543457
48.00139617919922,214.52879333496094,1.7649999856948853,686.3614501953125,21.454124450683594
50.00149917602539,215.59022521972656,1.7859998941421509,656.0784912109375,21.454124450683594
52.00129699707031,216.5870819091797,1.8070000410079956,627.2159423828125,21.455400466918945
54.0016975402832,217.4169158935547,1.8269999027252197,593.9439697265625,21.455400466918945
56.0016975402832,218.2816925048828,1.8469998836517334,599.9998779296875,21.456676483154297
58.00129699707031,219.0842742919922,1.8660000562667847,569.2074584960938,21.455718994140625
60.00129699707031,219.75950622558594,1.8839999437332153,554.1918334960938,21.45699691772461
62.001495361328125,220.50640869140625,1.902000069618225,542.649658203125,21.456676483154297
64.0011978149414,221.09872436523438,1.9199998378753662,532.1803588867188,21.456676483154297
66.00170135498047,221.79469299316406,1.936999797821045,521.5203857421875,21.45827293395996
68.00170135498047,222.34495544433594,1.9539999961853027,509.79901123046875,21.461782455444336
70.00139617919922,222.9159393310547,1.970999836921692,504.6045227050781,21.460506439208984
72.00139617919922,223.5129852294922,1.9879997968673706,498.69927978515625,21.459548950195312
74.00129699707031,224.0288848876953,2.003999948501587,494.61749267578125,21.459548950195312
76.0011978149414,224.55783081054688,2.0199997425079346,489.6936340332031,21.459548950195312
78.00159454345703,225.1163787841797,2.0360000133514404,482.6263427734375,21.461782455444336
80.00170135498047,225.5973358154297,2.052000045776367,480.1668701171875,21.461782455444336
82.00149536132812,226.00306701660156,2.067999839782715,481.47271728515625,21.462100982666016
84.00149536132812,226.5242919921875,2.0840001106262207,473.9596862792969,21.463058471679688
86.00139617919922,226.98097229003906,2.0999999046325684,470.7181701660156,21.462100982666016
88.0011978149414,227.40565490722656,2.115999698638916,470.6820983886719,21.460506439208984
90.00159454345703,227.85284423828125,2.13100004196167,467.7982177734375,21.463058471679688
92.00170135498047,228.26983642578125,2.1469998359680176,468.1261901855469,21.465612411499023
94.00139617919922,228.71051025390625,2.1619999408721924,467.3851623535156,21.46337890625
96.00129699707031,228.98831176757812,2.1629998683929443,411.6070861816406,21.463058471679688
98.00129699707031,229.0333251953125,2.1629998683929443,364.7347106933594,21.46465492248535
100.00129699707031,229.0546417236328,2.1629998683929443,327.44622802734375,21.465930938720703
102.00129699707031,229.08070373535156,2.1629998683929443,249.15065002441406,21.465612411499023
104.00149536132812,229.08485412597656,2.1629998683929443,78.42291259765625,21.465612411499023
106.00170135498047,229.0830841064453,2.1629998683929443,8.59807014465332,21.466888427734375
106.20149993896484,229.0919647216797,2.1629998683929443,8.389790534973145,21.466888427734375
